B,G,R,Time[ms]
68.23319783197832,64.95525745257453,43.546422764227636,0.0
68.38975609756098,64.87094850948509,43.94132791327913,33.333333333333336
68.40340136054421,64.84236734693877,43.970938775510206,66.66666666666667
68.26428184281843,64.92948509485095,43.65005420054201,100.0
68.54636734693878,64.77991836734694,44.05757823129253,133.33333333333334
68.3277049180328,64.99959016393443,43.82732240437159,166.66666666666666
68.5874043715847,64.89546448087432,44.14368852459016,200.0
68.355,64.91338797814208,43.80101092896175,233.33333333333331
68.37131147540984,64.92418032786885,43.778907103825134,266.6666666666667
68.62967213114754,64.88855191256829,44.11639344262296,300.0
68.44292349726776,64.96896174863387,43.876693989071036,333.3333333333333
68.38672176308539,64.66564738292011,43.90482093663912,366.6666666666666
68.4505737704918,64.98265027322404,43.82631147540984,400.0
68.65382513661203,64.89571038251366,44.059043715847,433.33333333333337
68.65325136612022,64.88989071038252,44.08297814207651,466.66666666666674
68.55555555555556,65.08532235939643,43.953744855967074,500.0
68.71113854595336,64.9883950617284,44.19637860082305,533.3333333333334
68.46196721311476,65.05565573770492,43.90562841530055,566.6666666666666
68.72459016393442,64.88122950819671,44.2951912568306,600.0
68.14367626886147,64.73766803840878,43.745761316872425,633.3333333333333
68.17207133058984,64.71231824417009,43.75437585733882,666.6666666666666
68.56516393442622,64.91540983606558,44.13734972677596,700.0
68.14228650137741,64.83195592286502,43.64071625344353,733.3333333333333
68.25731138545953,64.58820301783264,43.83936899862825,766.6666666666667
68.11448559670782,64.72175582990397,43.580219478738,800.0
68.34526170798898,64.69537190082643,43.955730027548206,833.3333333333335
68.34550964187328,64.70159779614325,44.006997245179065,866.6666666666667
68.11478737997257,64.70060356652951,43.63407407407407,900.0
68.36592286501377,64.83691460055097,43.86212121212122,933.3333333333336
68.08342115480615,64.57898385933773,43.44766764656941,966.6666666666664
68.28878473570359,64.5933773365134,43.727189527982695,1000.0
67.89634854771785,64.42362378976486,43.292503457814654,1033.3333333333335
67.89969571230982,64.407081604426,43.29333333333333,1066.6666666666667
68.3554285082995,64.4872538459414,43.866048001767616,1100.0
67.79605080703311,64.15480614565422,43.22696766320929,1133.3333333333333
67.6119966442953,63.75125838926175,43.1592841163311,1166.6666666666667
67.49189038031321,63.884060402684575,42.992253914988815,1200.0
67.64040827740493,63.74625279642058,43.113199105145405,1233.3333333333335
67.65467002237136,63.74664429530201,43.112947427293065,1266.6666666666665
67.5197706935123,63.847147651006715,42.898909395973156,1300.0
67.1258445945946,63.18671171171172,42.486204954954964,1333.3333333333333
67.36929460580913,63.83831351471776,42.86446294800746,1366.6666666666667
67.50712274774774,63.65565878378378,42.93780968468469,1400.0
67.13035298082053,63.53671618320182,42.517059335598546,1433.333333333333
67.08969138749262,63.56794248968015,42.50318721743282,1466.6666666666665
67.40725580352137,63.57395985196815,42.94460020186161,1500.0
67.04104941761845,63.33585887142373,42.368200836820094,1533.3333333333335
67.64582695146063,63.723662591550855,43.22637778829819,1566.666666666667
67.34800112612612,63.689752252252255,42.6303490990991,1600.0
67.85967053081147,64.1019191302901,43.301819291142046,1633.333333333333
67.49436074521708,63.70191316940043,43.010192430866915,1666.666666666667
68.25990960142447,64.79128886453911,43.63980276674428,1700.0
68.44506775067751,64.7979945799458,44.04821138211382,1733.3333333333335
68.38492517006803,64.90204081632653,43.918557823129255,1766.6666666666665
68.50116531165311,64.75840108401084,44.03571815718157,1800.0
68.03355102040817,64.55142857142856,43.49420408163265,1833.333333333333
67.88949458978223,64.39350773866595,43.32779071360088,1866.666666666667
68.15098360655738,64.53469945355191,43.76270491803279,1900.0
67.23365481664237,63.54676460693058,42.68691824604688,1933.333333333333
67.47442145423153,63.65284469074605,42.991812637500345,1966.6666666666665
67.22933722103846,63.558287540652685,42.677778400807455,2000.0
67.65894344036315,63.62235094266061,43.24985379709822,2033.333333333333
67.6369433846668,63.64900164304213,43.24567657133309,2066.666666666667
67.6816795163348,64.08014864939818,43.278689888512965,2100.0
68.44565986394558,64.81991836734693,44.103428571428566,2133.333333333333
68.17644158334474,64.75156827831805,43.61999726064922,2166.6666666666665
68.45184885290149,64.74690958164642,43.917948717948725,2200.0
68.28425274185628,64.73113439188083,43.6065913679271,2233.333333333333
68.36914285714286,64.88394557823129,43.768,2266.6666666666665
68.50043537414966,64.81303401360545,43.87066666666667,2300.0
68.26351020408164,64.86666666666667,43.70696598639456,2333.333333333333
67.97129160388988,64.18833036570335,43.358526229283655,2366.6666666666665
67.09573464973099,63.58441954628653,42.58017638249487,2400.0
67.15115861573729,63.364791338691425,42.66611428729252,2433.333333333333
67.14538625127739,63.36846466152954,42.67127903444086,2466.666666666667
66.93283066810285,63.460352970420104,42.433893998398105,2500.0
67.01345043776065,63.13033391333168,42.579501201425145,2533.333333333333
66.29927965155238,62.64398592807684,41.737575385302655,2566.666666666667
66.68080757864502,62.928494490015744,42.36528848012815,2600.0
66.0907415680143,62.518343756980116,41.67938909984365,2633.333333333333
66.09325441143622,62.521973419700686,41.65741568014296,2666.6666666666665
66.5239684128573,62.70097875653431,42.151957513068616,2700.0
66.68943228077896,63.18360105622181,42.28317196611288,2733.333333333333
67.23853009131918,63.61101331279568,43.005501155242605,2766.666666666666
67.25246612466124,64.02883468834689,43.06991869918699,2800.0
67.27992283237779,63.71537646387522,43.023313316849176,2833.333333333333
67.36069031639502,63.80136967538694,43.16123818654979,2866.666666666666
67.24625921443503,63.91255913741886,42.900814170975906,2900.0
67.12547297483914,63.57980501008093,42.877261303062944,2933.333333333333
67.17361645945647,63.877489272747276,42.83287490372978,2966.666666666667
67.24602030062677,63.638998280548,43.117421931332856,3000.0
66.5450108159077,63.200954018525714,42.41815963170448,3033.333333333333
66.52354539907925,63.22918631094348,42.35642575850019,3066.666666666667
66.76188363192635,63.20275666980975,42.5910200232958,3100.0
66.63429404508243,63.22566446114164,42.26393405853987,3133.333333333333
67.09640195751308,63.50403180958737,42.7095706817929,3166.666666666666
67.23492706195573,63.977979921238,42.892534250374396,3200.0
67.04324821075497,63.43936060597622,42.80149823164109,3233.333333333333
67.05140772508285,63.45409228884124,42.81338940098583,3266.666666666666
66.54391891891892,63.13555743243244,42.114611486486496,3300.0
67.08315576987776,63.41423685095885,42.77685880901649,3333.333333333333
66.94392732981945,63.55694179656835,42.51928899854211,3366.666666666666
67.07689050724024,63.29850114319586,42.55909334688232,3400.0
67.21546546546547,63.844761428094756,42.74972194416639,3433.333333333333
67.21407518629739,63.829829829829826,42.748554109665214,3466.666666666667
67.73323221180364,63.93400441257585,43.219884169884175,3500.0
67.58200246541571,64.19756197781126,43.046678537186686,3533.333333333333
67.69484912969935,64.14647787417472,43.25235990614939,3566.666666666667
67.43328389364974,64.0584761590859,42.85039002417052,3600.0
67.70018817204301,64.16586021505378,43.33255376344085,3633.333333333334
67.72279569892473,64.15612903225806,43.340591397849465,3666.666666666666
67.52862538380023,64.13656495394397,42.95090074178735,3700.0
67.76773761713521,64.18776439089692,43.27493975903615,3733.333333333334
67.67571619812584,64.29384203480589,43.104524765729586,3766.666666666666
67.74183673469388,64.0996414782129,43.084059569773856,3800.0
67.53898816743485,64.122638203822,42.828656909517264,3833.333333333334
67.45371812080539,64.08276510067114,42.774442953020134,3866.666666666666
67.74792,64.18936,43.26570666666667,3900.0
67.6292,64.30306666666667,43.05661333333333,3933.333333333333
67.69534020843564,64.22742401920664,43.15196158672997,3966.666666666667
67.73643724696356,64.46375168690959,43.17476383265857,4000.0
67.8430078071497,64.29042596904534,43.29724695247226,4033.333333333333
67.84939049445282,64.28672784550062,43.296288179701406,4066.666666666666
67.62625329456837,64.29799201152079,43.02497079042469,4100.0
67.75173745173745,64.06020408163265,43.242857142857154,4133.333333333334
67.39833865111673,64.04618219826163,42.930822972824295,4166.666666666667
67.5653537242821,63.95161733964133,43.12894707888657,4200.0
66.95918140362585,63.48871093315538,42.42000333667001,4233.333333333333
66.95912579245913,63.48542987431877,42.434656879101325,4266.666666666667
67.12762762762763,63.40493271048828,42.64280947614281,4300.0
67.06365870002233,63.535794058521326,42.59465043555952,4333.333333333333
67.41068870523415,63.76994490358128,43.07523415977962,4366.666666666666
67.67560608135872,64.25169154910287,43.11225859471306,4400.0
67.81051093310239,64.04971314137259,43.11980407014504,4433.333333333334
67.83677961035785,64.01725402820422,43.22077004592017,4466.666666666667
67.48463440480397,64.05771268646578,42.739966850528496,4500.0
67.56594096142304,64.0854749822666,42.90183881704589,4533.333333333333
67.4064886014727,64.00529848110209,42.774012988071625,4566.666666666666
67.51243105181642,63.97570850202429,42.99510909436732,4600.0
67.49351955003668,64.02711735456349,42.802597614324924,4633.333333333334
67.49294894437953,64.02388392250631,42.82645436513327,4666.666666666667
67.55112903225806,64.12150537634409,42.86220430107527,4700.0
67.36233459228868,64.07224954487405,42.66497296416053,4733.333333333333
67.43080212167135,63.86739554016021,42.89131846720069,4766.666666666667
67.42958164642376,64.23457489878543,42.840971659919035,4800.0
67.23930858569413,63.80532942581135,42.360685987192014,4833.333333333333
67.27436774123521,63.78362097036796,42.36470205144904,4866.666666666666
67.31414247594404,63.97334303657584,42.45351877307889,4900.0
67.54661599417804,63.770976523543844,42.92975930567909,4933.333333333334
67.16037583892617,63.761342281879216,42.59441610738254,4966.666666666667
67.40847586057589,63.72918921844555,42.86439164321281,5000.0
67.42188933873145,64.05476383265857,42.9910661268556,5033.333333333333
67.352311827957,63.99844086021506,42.90239247311828,5066.666666666666
67.21622645594285,63.79814353756225,42.67246698419572,5100.0
67.21927560253239,63.904437138276776,42.66475559057685,5133.333333333334
67.38108306388067,63.793141863435046,42.98559900008152,5166.666666666667
66.98515850930322,63.58713919353959,42.50837562066896,5200.0
67.4479729361052,63.86375293283135,43.007720849020565,5233.333333333333
67.43504119604954,63.87930375948054,43.02152561794074,5266.666666666667
67.11706458356255,63.749092309384956,42.60410936296623,5300.0
67.64194331983806,64.12439946018894,43.19303643724698,5333.333333333333
67.5259109311741,64.18226720647773,42.98016194331984,5366.666666666666
67.8634278002699,64.17948717948718,43.46715249662617,5400.0
67.64441734417345,64.33330623306233,43.16742547425474,5433.333333333334
67.63688346883468,64.34178861788618,43.15037940379404,5466.666666666667
67.95002732240437,64.37639344262296,43.513879781420755,5500.0
67.85543715846994,64.56986338797815,43.36068306010929,5533.333333333332
67.89895747599451,64.24757201646091,43.43138545953361,5566.666666666666
67.75020576131688,64.40592592592593,43.230452674897116,5600.0
68.12836762688615,64.39325102880659,43.587654320987646,5633.333333333334
67.7907438016529,64.01495867768595,43.27468319559229,5666.666666666668
67.87883410061568,64.51156470131454,43.22990737145709,5700.0
67.76810827369185,64.12105600267343,43.24887911108634,5733.333333333332
67.63042503083997,64.0429516653583,43.01213973309409,5766.666666666668
67.84764265225988,64.20292962766996,43.333788186805535,5800.0
67.87629322268326,64.45120331950207,43.3731673582296,5833.333333333332
67.87510373443983,64.4549377593361,43.36210235131397,5866.666666666666
68.12923623051749,64.14504409562372,43.478146319818066,5900.0
68.2811026679239,64.74468911198625,43.542237506239935,5933.333333333334
68.38488710159497,64.90617612694615,43.53424992527783,5966.666666666668
68.32722213128172,64.94314399519834,43.348720467070436,6000.0
68.5822945394374,64.70871483728627,43.585300606729184,6033.333333333332
68.58549365692221,64.71025923883067,43.58800330943188,6066.666666666666
68.54510341049172,64.99279550746472,43.649582249007,6100.0
68.503833425262,64.83394925537783,43.44602868174297,6133.333333333334
68.52595146166576,64.86668505239933,43.43265306122449,6166.666666666668
68.61588112502747,64.74585255987695,43.60044495715229,6200.0
68.2220868409393,64.61300952591937,43.19076761187417,6233.333333333332
68.48298400441257,64.90441257584115,43.422311086596785,6266.666666666668
68.49821857651835,64.83362333250477,43.74527025160881,6300.0
68.66968313345802,65.15936846737816,43.847315436241615,6333.333333333332
68.8668127653746,65.08467333242021,44.198876866182715,6366.666666666666
68.62155869059032,65.18797425010273,43.78435830708122,6400.0
68.35031356584885,64.92083837605897,43.58845857630102,6433.333333333334
68.61725790987535,65.21375154088481,43.82059991781948,6466.666666666668
68.60443774825367,65.21471031365567,43.72203807697576,6500.0
68.54398320766703,64.91791642500071,43.8466594857348,6533.333333333332
68.42019498991908,65.04126273924932,43.61733918855471,6566.666666666666
68.76908900869182,65.31609638023986,43.89949389371768,6600.0
68.46206534647996,65.03946750628332,43.58629546772724,6633.333333333334
68.46049106526361,65.0354627558207,43.60239732648383,6666.666666666668
68.82032598274209,65.1790987535954,44.070401314888365,6700.0
68.49418620708703,65.0687988510509,43.679951390615074,6733.333333333332
68.61974203883227,65.01317424807358,43.92603640180076,6766.666666666668
68.71047801671004,65.28782358581017,43.92885906040269,6800.0
69.06607314066568,65.17671551842214,44.37088070127378,6833.333333333332
69.0508697438707,65.1774003561156,44.35915627996165,6866.666666666666
68.62062841530054,65.16401639344262,43.952595628415295,6900.0
68.86772357723578,65.38485094850948,44.11764227642278,6933.333333333334
68.51788328223824,65.09453972988649,43.710801778661576,6966.666666666668
68.5862856199802,64.96336230608428,43.89575310815271,7000.0
68.5474631977242,65.09564448863479,43.80981578147872,7033.333333333332
68.54111083492143,65.10191399453144,43.80001104758748,7066.666666666666
68.7369401451856,65.35970415011643,43.90938227640049,7100.0
68.72340775236269,65.37301739487742,43.855362279139854,7133.333333333334
68.6323853009132,64.98170865881835,43.88838156012763,7166.666666666668
68.86018970189701,65.45246612466124,44.078238482384826,7200.0
68.80547908232117,65.42461538461541,44.01103913630229,7233.333333333332
68.8869918699187,65.4791327913279,44.15092140921411,7266.666666666668
68.85070460704607,65.54222222222222,43.97588075880759,7300.0
69.25761517615176,65.35764227642278,44.506747967479676,7333.333333333332
68.71050908495664,65.31126207235225,43.8629890325749,7366.666666666666
68.88563685636856,65.45159891598917,44.146287262872626,7400.0
68.81668264621285,65.32743459800028,43.98920695795098,7433.333333333334
68.7970141076565,65.35669086426519,43.97742774962335,7466.666666666668
68.98676893576223,65.24454184358308,44.066456649774,7500.0
68.50157842268497,64.8738923349579,43.379098360655746,7533.333333333332
68.65501772264068,64.77326096588392,43.68068785999114,7566.666666666666
68.77055710154417,65.22657827249414,43.80935232171114,7600.0
68.85925215723874,65.2873578961786,43.92606492261334,7633.333333333334
68.83804958224901,65.28371455964937,43.936748390631415,7666.666666666668
68.65009151921903,65.17496810693882,43.807615508347645,7700.0
68.97640004400925,65.30886236109583,44.18316096380239,7733.333333333332
68.82065470483495,65.32116148472812,43.900178057800304,7766.666666666668
68.92680973292458,65.00403236943133,44.16988427652112,7800.0
68.84487056567593,65.289412409259,44.10579372688673,7833.333333333332
68.83552937953705,65.28155047253803,44.07859197370224,7866.666666666666
68.9648541295713,65.22577729078209,44.16811395699219,7900.0
68.64860386113183,65.09929019250421,43.87623940122076,7933.333333333334
68.99027530475277,65.25906040268457,44.169976715518416,7966.666666666668
68.83678948089303,65.30993014655527,44.02561292973566,8000.0
68.92119595114974,65.40738805149081,44.07690615029156,8033.333333333332
68.93962482121246,65.4024920233249,44.05616679502696,8066.666666666666
68.81725790987537,65.38123544719902,43.86629228872757,8100.0
68.9689631557321,65.26481303930969,44.19583618682373,8133.333333333332
68.96231708658819,65.39369017493674,44.04728242931016,8166.666666666666
69.02035337624983,65.24248733050267,44.17855088344063,8200.0
68.62083287490373,65.02395753108155,43.77849598415668,8233.333333333332
68.60688744636374,65.03694025745406,43.7411156342832,8266.666666666668
69.11992877687989,65.23533762498288,44.348253663881664,8300.0
68.46647045879635,65.00418087798438,43.6450929695236,8333.333333333334
68.16074239787886,64.63335819040518,43.33847046151297,8366.666666666668
68.12398155052891,64.65517717568426,43.30217913663104,8400.0
68.55831224557157,64.98822752778085,43.94960941797777,8433.333333333334
68.56183298492684,64.9881450104522,43.97648256133788,8466.666666666666
68.21235232126017,64.75356370292306,43.52703976926063,8500.0
68.24511834728092,64.62822106222553,43.610434446377774,8533.333333333334
68.1812909105974,64.68367995139062,43.440412075013114,8566.666666666666
68.55616679502695,65.04794256793927,43.819974694685875,8600.0
68.76578550883441,65.31949048075606,43.921901109437066,8633.333333333332
68.76553896726476,65.32800986166279,43.90406793589919,8666.666666666666
68.99904122722916,65.26914121353241,44.25328037255171,8700.0
68.58557046979865,65.0803718780944,43.726510067114106,8733.333333333332
69.19390243902438,65.38344173441735,44.49420054200542,8766.666666666668
68.79691166039177,65.28550772084903,43.94854586129754,8800.0
68.69188029486192,65.02676312025525,44.03160413686874,8833.333333333334
68.75888435374151,65.11657142857143,44.13238095238096,8866.666666666668
68.57671360985807,65.12187809439982,43.775855429640224,8900.0
68.88828927544172,65.38222161347761,44.012354471990136,8933.333333333334
68.60402684563759,65.0700022004621,43.73242380899989,8966.666666666666
68.75250302563539,64.9815986357135,43.94424579161624,9000.0
68.63895918142809,65.05176587083288,43.759792056331825,9033.333333333334
68.64184728793046,65.05977005171086,43.72436461656948,9066.666666666666
68.78198921773573,64.99680932995929,43.94729893277589,9100.0
68.73488551937471,65.14408815974812,43.77120446322535,9133.333333333332
69.12420216408711,65.24599369949323,44.1494863717299,9166.666666666666
68.80309272687322,65.11676005273567,43.64027136892991,9200.0
69.13848420363398,65.1771975773449,44.170295192884815,9233.333333333332
69.14244011567632,65.18235390407595,44.1454411523981,9266.666666666668
68.73917514613552,65.18672872916216,43.69254708811431,9300.0
69.01399574398428,65.08206471326459,44.04280569651335,9333.333333333334
68.83391316258047,65.27738665936174,43.911765511573755,9366.666666666668
68.59599515898338,65.02505776213005,43.73071845087468,9400.0
68.72693993011261,65.19618392589716,43.857618281657324,9433.333333333334
68.69884630317821,65.21934106162294,43.85071274058461,9466.666666666666
68.81417097590494,65.02076686104083,43.89586313125756,9500.0
69.00556088207095,65.34395288316671,43.93869332968086,9533.333333333334
69.01852458121897,65.2337807606264,44.05920226987505,9566.666666666666
68.67944768401364,65.11849488392562,43.67078336450655,9600.0
68.79947952335297,64.95899191891522,43.75710176688125,9633.333333333332
68.77956444322696,64.97792083276263,43.74795233529654,9666.666666666666
68.69042248872263,65.12240070414788,43.635988557597095,9700.0
68.9746121685554,65.03121905600176,43.97378699526901,9733.333333333332
68.33626780307279,64.66600314006953,43.37344398340249,9766.666666666668
68.35309778689889,64.7428864607022,43.51924676909424,9800.0
68.64252768801613,65.13246057392217,43.81081006435221,9833.333333333334
68.56227307734625,65.05935746506765,43.74136318626912,9866.666666666668
68.64355264605567,65.04874023544944,43.74686434151172,9900.0
68.80157690838654,65.27402193485023,43.79729361052,9933.333333333334
69.06032388663968,65.26523616734143,44.170283400809716,9966.666666666666
68.84241828995471,65.25369673159818,43.84861133846237,10000.0
69.00414688710646,65.15417144104327,44.173268947454574,10033.333333333334
69.00875757079719,65.14874229279205,44.2189119877776,10066.666666666666
68.96626016260163,65.41710027100271,44.15574525745257,10100.0
68.9519241192412,65.44747967479675,44.17186991869919,10133.333333333332
68.82612685560055,65.43975708502025,43.99357624831309,10166.666666666666
69.12869095816464,65.30078272604588,44.357840755735495,10200.0
68.93764227642276,65.43707317073171,44.10262872628727,10233.333333333332
68.90542005420055,65.46609756097561,44.054959349593496,10266.666666666668
69.05311473644538,65.64731061217897,44.33559468045011,10300.0
69.06438707933505,65.74320854169483,44.2794701986755,10333.333333333334
69.1133067002708,65.62702094002198,44.443360055768565,10366.666666666668
69.07171700856081,65.65503688149464,44.329079847089865,10400.0
69.20990146987563,65.58418133850212,44.51278737952943,10433.333333333334
69.20505572605396,65.58200075378237,44.538739029774405,10466.666666666666
69.05661444031661,65.66798578581812,44.23832983362946,10500.0
68.98639455782313,65.58002721088435,44.14372789115647,10533.333333333334
68.98032653061225,65.61902040816327,43.99725170068027,10566.666666666666
69.14402721088436,65.50157823129254,44.35572789115646,10600.0
69.03074829931973,65.56802721088435,44.13485714285714,10633.333333333332
69.01926530612245,65.58375510204083,44.100952380952386,10666.666666666666
69.23861788617886,65.35761517615177,44.4628726287263,10700.0
69.07514419995728,65.50448622089297,44.3693121127964,10733.333333333332
69.08363597521897,65.558400982696,44.30319376201666,10766.666666666668
69.00774407177954,65.54123050630207,44.193601794488366,10800.0
69.04269638722877,65.63880363969203,44.33882517633123,10833.333333333334
69.04911923210982,65.65997265195591,44.305440115827004,10866.666666666668
68.98498538756468,65.68764243772958,44.207255275223204,10900.0
69.18752178459393,65.57701691825079,44.54706812880392,10933.333333333334
69.03603506984476,65.65482478483524,44.32796203447998,10966.666666666666
69.21235126258547,65.68890324664837,44.628600656867505,11000.0
69.14912826057575,65.74753345046628,44.39754020813624,11033.333333333336
69.16176708124698,65.76309696871803,44.3580735476229,11066.666666666664
69.05428184281843,65.56455284552845,44.25691056910569,11100.0
69.02685636856368,65.56149051490515,44.182899728997285,11133.333333333332
69.18150537634409,65.37112903225807,44.50102150537635,11166.666666666664
68.96655870445345,65.49298245614035,44.09867746288799,11200.0
69.21178861788619,65.4610027100271,44.39208672086721,11233.333333333332
69.19243902439024,65.48159891598915,44.35525745257453,11266.666666666668
69.06124661246612,65.5669918699187,44.15542005420053,11300.0
68.95200657444187,65.38575537597589,44.01890152033968,11333.333333333336
69.02071184948839,65.48162614148971,44.04046099680933,11366.666666666668
69.02137341423055,65.16180364037507,43.96519580805296,11400.0
68.72564230897565,65.01292959626294,43.54504504504505,11433.333333333336
68.92217319360176,65.22294539437397,43.713927192498616,11466.666666666664
68.83608608608608,64.92550884217552,43.7811978645312,11500.0
68.38426600874733,64.65490075137377,43.32878210160368,11533.333333333336
68.5785785785786,64.96749527305083,43.57974641307975,11566.666666666664
68.70411798823432,65.14610434446378,43.759853067086475,11600.0
69.15907409943844,65.27064785645804,44.25969045336255,11633.333333333332
69.16003287220929,65.27089439802766,44.285549924667855,11666.666666666664
68.85689631557321,65.33181755923846,43.95162306533352,11700.0
68.99268593343378,65.27785234899329,44.205040405423915,11733.333333333332
68.86245719764416,65.36414189837011,43.99474044651418,11766.666666666668
69.0746747020956,65.26292288727572,44.195781399808254,11800.0
68.93913162580469,65.33214628133133,43.996027941377896,11833.333333333336
68.94496644295302,65.32677715381455,44.00232844815779,11866.666666666668
69.0061062823193,65.39561557927165,44.053306194300795,11900.0
68.95632082737374,65.42853999339862,43.98820002200461,11933.333333333336
69.1837660908791,65.37971724062054,44.238392562438115,11966.666666666664
68.97849048300144,65.49122565738807,43.96228958081197,12000.0
68.95081967213115,65.50552866101881,44.0188139509297,12033.333333333336
69.01844897959185,65.5821224489796,44.157931972789115,12066.666666666664
68.89141213532392,65.44539104232297,43.91538145459526,12100.0
69.16622380495822,65.33244760991646,44.31414874674704,12133.333333333332
69.0574149659864,65.58625850340137,44.11006802721089,12166.666666666664
68.75606926837352,65.20703178943299,43.93139448173005,12200.0
68.74065788383461,65.1952661087635,43.844284254425936,12233.333333333332
68.71720937940178,65.22067555997461,43.80205485127185,12266.666666666668
68.82740125426339,65.0369952690065,44.03597755528661,12300.0
68.70931895698097,65.11742215865331,43.818874463637364,12333.333333333336
68.89336316181954,65.1210815588146,44.09553401275996,12366.666666666668
68.73866931808766,65.23415361670395,43.86712514154722,12400.0
68.77374540834646,65.24912309774354,43.88836412848346,12433.333333333336
68.79622724887453,65.2432954953462,43.87405750269285,12466.666666666664
68.71605787215316,65.15320717350644,43.78372208163714,12500.0
69.15910149294618,65.35214354198054,44.26207368853582,12533.333333333336
69.11531972789116,65.59126530612245,44.24097959183674,12566.666666666664
69.22410628681004,65.35627996164911,44.51749075469115,12600.0
68.61285619980195,65.10221146440753,43.912229068104295,12633.333333333332
68.58548795247003,65.09896578281439,43.87385851028717,12666.666666666664
68.75286060072615,65.05190339971394,44.06252062933216,12700.0
68.70594084016903,65.19858038500843,44.01137901510757,12733.333333333332
68.84966995332394,65.1182368050377,44.25111166349048,12766.666666666668
68.75783264746228,65.38046639231824,44.18507544581618,12800.0
68.71234844090921,65.24605739221698,43.94542491783357,12833.333333333336
68.65301463307294,65.17218615909341,43.860463197271436,12866.666666666668
68.64184728793046,65.19210034107161,43.850533612058534,12900.0
68.8423509266164,65.20603750655951,44.18065567431712,12933.333333333336
68.70710083685475,65.2794487253846,43.908387880796525,12966.666666666664
68.64300253053142,65.19226537572891,43.84258444273297,13000.0
68.58977885355925,65.18415117174607,43.802838596105175,13033.333333333336
68.5936846737815,65.17532181758169,43.8022609748047,13066.666666666664
68.87136008765923,64.9820846459389,44.13622791398439,13100.0
68.67606447353944,65.0830949499395,43.885823522939816,13133.333333333332
69.15281842818428,65.42620596205963,44.45547425474255,13166.666666666664
68.88958913079064,65.30845201069461,44.01778796311453,13200.0
68.97548281057391,65.36877140117792,44.09708259142583,13233.333333333332
68.97109984933572,65.36920969730174,44.1139843857006,13266.666666666668
69.02293877551021,65.57602721088436,44.268299319727895,13300.0
69.11268027210885,65.51866666666668,44.41945578231293,13333.333333333336
68.88735789617861,65.42996849746609,43.98920695795098,13366.666666666668
69.17209176788124,65.45287449392714,44.29055330634278,13400.0
68.96381317627723,65.40227366114232,44.00462950280786,13433.333333333336
68.9725790987536,65.42122996849747,43.97898917956446,13466.666666666664
69.169812354472,65.34340501301192,44.21238186549788,13500.0
69.01421723051637,65.38934392548967,43.973757019586365,13533.333333333336
69.2883440624572,65.29489111080674,44.305848513902205,13566.666666666664
68.664998331665,64.93857746635524,43.599210321432544,13600.0
68.70790178694728,65.16610047780816,43.83685475184357,13633.333333333332
68.71991603833513,65.17101665423813,43.83765570193609,13666.666666666664
68.63953680272857,65.14027945868632,43.692980525910436,13700.0
68.7575915942348,65.07049730443393,44.01688854659479,13733.333333333332
69.0124601166245,65.51963912421608,44.055094069754645,13766.666666666668
69.17357823129252,65.6679455782313,44.13695238095239,13800.0
68.97339890769774,65.41352607124419,43.841344455615044,13833.333333333336
68.98502839442436,65.41841697687688,43.82699779909247,13866.666666666668
69.09469336738853,65.38037659973371,44.04711572426161,13900.0
69.00236393772246,65.43485585414233,43.85224030649675,13933.333333333336
69.03556775262886,65.41798222970954,43.94516751351792,13966.666666666664
69.00980898296335,65.4083634486319,43.926310355134106,14000.0
69.20408602150539,65.44220430107526,44.35096774193549,14033.333333333336
69.1766800535475,65.36425702811245,44.308353413654615,14066.666666666664
68.88587864676072,65.38986440213671,43.945377345569106,14100.0
69.08020819065882,65.29237090809478,44.259717846870295,14133.333333333332
68.60240400484102,65.08422268676422,43.73443173066343,14166.666666666664
69.05799205588276,65.31250513628271,44.24925352691413,14200.0
69.00620408163265,65.56081632653061,44.227265306122455,14233.333333333332
69.01774149659865,65.55276190476191,44.21673469387756,14266.666666666668
68.79562841530054,65.28540983606557,43.951475409836064,14300.0
69.0246530612245,65.60446258503401,44.111292517006795,14333.333333333336
69.27120218579235,65.59945355191257,44.5544262295082,14366.666666666668
69.20395061728395,65.75432098765432,44.365651577503435,14400.0
69.2860655737705,65.60510928961749,44.49696721311476,14433.333333333336
69.29887978142078,65.5986612021858,44.54125683060109,14466.666666666664
69.21766803840877,65.73755829903979,44.364910836762675,14500.0
69.47700960219478,65.64551440329218,44.726337448559676,14533.333333333336
69.10841530054645,65.69210382513661,44.363661202185796,14566.666666666664
69.07132791327913,65.65308943089431,44.23636856368564,14600.0
69.04975609756097,65.68471544715446,44.28276422764228,14633.333333333332
69.0640108401084,65.67794037940381,44.28262872628727,14666.666666666664
69.09209176788124,65.52423751686909,44.39600539811066,14700.0
69.00151147098515,65.57419703103913,44.26107962213225,14733.333333333332
69.19571815718157,65.55804878048781,44.509457994579954,14766.666666666668
69.01417344173441,65.69287262872629,44.28032520325202,14800.0
69.25170731707317,65.52880758807589,44.4448238482385,14833.333333333336
69.20138211382114,65.55810298102979,44.450216802168036,14866.666666666668
69.11309427663814,65.84692833683303,44.3838098314758,14900.0
69.2091363697797,65.90733882957157,44.45279091769157,14933.333333333336
69.14858764697932,65.92447628057846,44.32520610893364,14966.666666666664
69.44546560345994,65.77940262197596,44.76994188403839,15000.0
69.10557823129254,65.61091156462585,44.287619047619046,15033.333333333336
69.10117486338798,65.59153005464478,44.32778688524589,15066.666666666664
69.02591044119265,65.43643415117175,44.17818241830785,15100.0
69.04901639344263,65.62193989071038,44.2675956284153,15133.333333333332
69.14720867208672,65.49509485094849,44.43249322493225,15166.666666666664
69.10047780815863,65.51108901593615,44.1554671748557,15200.0
69.28931693989071,65.52188524590164,44.429726775956276,15233.333333333332
69.37914951989026,65.59599451303156,44.51305898491084,15266.666666666668
68.85822840978423,65.24751788784735,43.800959565145035,15300.0
69.23890260631002,65.68603566529492,44.243676268861456,15333.333333333336
68.91685950413222,65.36776859504133,44.01399449035815,15366.666666666668
69.17141599735946,65.36447904059852,44.24647926064472,15400.0
68.77664540006076,65.20360703731322,43.69646753390229,15433.333333333336
68.77672825696689,65.23512028060873,43.64504101416853,15466.666666666664
69.35925294311805,65.39919133017933,44.39627571790077,15500.0
68.70845416632143,65.13864722291271,43.849697572292655,15533.333333333336
68.81793222031172,65.18986077985467,44.02246380830884,15566.666666666664
68.89363516338432,65.43019033997139,44.10031356584883,15600.0
68.82818239566934,65.04079321678128,44.124478691965635,15633.333333333332
68.82702239898363,65.0476427210208,44.108929212583206,15666.666666666664
69.04882275277808,65.4606667400154,44.09247441962813,15700.0
69.14102177783866,65.31461443637858,44.22643473496783,15733.333333333332
68.95678842556936,65.45035207393553,44.07272527230719,15766.666666666668
69.16340136054423,65.44525170068027,44.49406802721089,15800.0
68.93152496626179,65.47168690958165,44.126369770580304,15833.333333333336
68.90566801619434,65.48866396761134,44.10402159244265,15866.666666666668
69.05472289996514,65.65857843794407,44.31656701611389,15900.0
68.90663967611336,65.50183535762483,44.09449392712551,15933.333333333336
69.06128498184148,65.5094264046144,44.44440290536209,15966.666666666664
69.03059227283696,65.64383194358795,44.333163525216506,16000.0
69.02693657219973,65.38331983805668,44.310013495276664,16033.333333333336
69.12966190310212,65.57942998096361,44.48762635064481,16066.666666666664
69.01576534305708,65.64281309488699,44.362897820200004,16100.000000000002
68.94940629839958,65.22769882889982,44.21973752139771,16133.333333333332
68.93787068805021,65.56743530413043,44.266390063565524,16166.666666666668
68.90853480145748,65.6112662570813,44.27724141599512,16200.0
68.89122051118379,65.6131014122716,44.17080241495785,16233.333333333336
68.90744434692411,65.60528205537379,44.15798292507779,16266.666666666664
69.08167770419426,65.53251416261071,44.440357456315326,16300.0
68.92358839330832,65.64227772015212,44.265086837415886,16333.333333333332
68.95417431314662,65.61860687784251,44.15114763690524,16366.666666666668
68.87026250698156,65.64671932764169,44.17391419984574,16400.0
69.1475422812063,65.3760059101343,44.56051291522651,16433.333333333332
69.12793857681854,65.39233793303606,44.56119891295744,16466.666666666664
68.8673368972579,65.58339317535041,44.24902258038777,16500.0
68.93255139764355,65.55996170110906,44.32966302295274,16533.333333333336
68.90733796111599,65.61727705524083,44.191733822708045,16566.666666666668
69.09580042022394,65.49793877496741,44.50916247772547,16600.0
69.02486114078188,65.63576158940397,44.304822687459954,16633.333333333332
68.84845341631426,65.55892443947977,44.0519960637251,16666.666666666668
69.028305917539,65.51644947660756,44.333742790002134,16700.0
68.98418103332708,65.65420811325308,44.25232592433708,16733.333333333336
68.98216193121128,65.57971053193762,44.270401623584696,16766.666666666664
69.00474569000187,65.64230367053649,44.25471217524198,16800.0
69.18004129018418,65.58607930932783,44.463683406172066,16833.333333333332
69.13357188634907,65.51928006836147,44.38338496047854,16866.666666666668
69.07051505483014,65.66667560393597,44.24481861811943,16900.0
69.30249946592609,65.48835718863491,44.58991134372997,16933.333333333332
68.98106707968383,65.61234244819482,44.174295022431096,16966.666666666664
68.88151147098516,65.41611336032389,44.052334682861,17000.0
68.62478911564628,65.22598639455782,43.85262585034014,17033.333333333336
68.60655782312925,65.23899319727892,43.83474829931973,17066.666666666668
68.66914285714286,65.21295238095239,43.901931972789114,17100.0
68.6083537414966,65.25336054421768,43.82016326530612,17133.333333333332
68.83467213114754,65.24046448087432,44.17308743169399,17166.666666666668
68.94838175603503,65.65570925016023,44.17880794701986,17200.0
69.16365927554494,65.62114915408746,44.524894763653904,17233.333333333336
69.15995924605195,65.6315521355605,44.47864439499156,17266.666666666664
69.0160602729442,65.71697455559428,44.300024130627115,17300.0
68.81504225199032,65.31698502839443,43.976469309567136,17333.333333333332
68.84653116531166,65.51533875338754,44.11569105691057,17366.666666666668
69.16817813765182,65.38545209176789,44.430094466936566,17400.0
69.01168362677004,65.59468045011576,44.379852474021426,17433.333333333332
68.94459863945579,65.48214965986395,44.20868027210884,17466.666666666664
69.04857142857144,65.43001360544218,44.318557823129254,17500.0
68.96978319783196,65.48452574525746,44.26121951219512,17533.333333333336
69.09927125506073,65.28898785425102,44.46018893387315,17566.666666666668
69.06491138697481,65.54312679303965,44.426790358473866,17600.0
69.21985682494571,65.48569590047457,44.56996541276778,17633.333333333332
69.24197656647988,65.50068370110196,44.60307799554924,17666.666666666668
68.96145748987854,65.45819163292848,44.160377867746284,17700.0
68.95790363943908,65.33966279260108,44.047116276531895,17733.333333333336
68.95915627996165,65.34458293384468,43.937761950417745,17766.666666666664
69.1821224489796,65.46938775510205,44.34204081632653,17800.0
68.9161246612466,65.47813008130082,44.06227642276423,17833.333333333332
68.90753387533876,65.49747967479675,44.02070460704607,17866.666666666668
69.27324238089999,65.37256573880515,44.458163714380035,17900.0
68.85425874392972,65.37152834615594,43.98406722322257,17933.333333333332
68.95684210526316,65.4394601889339,44.15978407557355,17966.666666666664
69.02153005464481,65.59890710382514,44.246530054644815,18000.0
69.07387755102042,65.4334149659864,44.4305306122449,18033.333333333336
69.08254742547426,65.45490514905147,44.39634146341464,18066.666666666668
68.97251366120219,65.5922131147541,44.24718579234973,18100.0
69.1108470412305,65.48093356120486,44.56112475966674,18133.33333333333
69.05000402177119,65.60074536826018,44.38737700083117,18166.666666666668
69.01406504065041,65.50542005420054,44.26043360433604,18200.0
68.94951219512195,65.50761517615176,44.18254742547426,18233.333333333336
69.03655737704918,65.56005464480874,44.282677595628414,18266.666666666664
69.10915989159892,65.44349593495934,44.363631436314364,18300.0
68.96325203252033,65.51143631436314,44.19154471544716,18333.33333333333
69.19055330634278,65.32291497975709,44.43139001349528,18366.666666666668
68.86854838709678,65.34596774193547,44.10793010752688,18400.0
68.86577956989247,65.35747311827957,44.1344623655914,18433.33333333333
69.00608844264046,65.53151036103397,44.357829523606064,18466.666666666664
69.0268118079202,65.61106791430946,44.282596455479,18500.0
69.19950666273427,65.5069576641553,44.425369332654114,18533.333333333336
69.01596881008332,65.54149754326001,44.31051057466353,18566.666666666668
69.1292321604298,65.42402723476688,44.45416101492061,18600.0
69.15521355605009,65.62809341233879,44.33772153256293,18633.33333333333
69.11531758586482,65.65469072579563,44.30066761401721,18666.666666666668
69.09376089229697,65.7025498029332,44.25814408665576,18700.0
69.11812846605287,65.7711193668228,44.32595703440478,18733.333333333336
69.0729728242931,65.39080206843437,44.23654967543185,18766.666666666664
69.02062585034014,65.54484353741496,44.211401360544215,18800.0
69.28419047619047,65.45349659863946,44.50691156462585,18833.33333333333
69.29477551020409,65.45605442176871,44.53180952380953,18866.666666666668
69.02380952380953,65.52514285714285,44.22704761904761,18900.0
68.96854421768708,65.54201360544218,44.26424489795919,18933.33333333333
68.9683537414966,65.56892517006804,44.15980952380953,18966.666666666664
69.19583673469388,65.45017687074831,44.445414965986394,19000.0
68.7686612021858,65.22707650273225,43.993169398907106,19033.333333333336
68.73765027322405,65.24434426229509,43.99308743169399,19066.666666666668
69.02247619047621,65.50299319727891,44.28097959183674,19100.0
68.94824489795919,65.54751020408163,44.149741496598644,19133.33333333333
69.08488529014845,65.40626180836708,44.338164642375176,19166.666666666668
69.01669376693765,65.5610840108401,44.23766937669377,19200.0
68.96453441295546,65.5148987854251,44.20726045883941,19233.333333333336
68.96796221322538,65.5174898785425,44.18785425101214,19266.666666666664
68.95535762483131,65.48753036437247,44.036491228070176,19300.0
69.06299866131191,65.31563587684069,44.291298527443104,19333.33333333333
68.79046854082999,65.3870950468541,43.97785809906291,19366.666666666668
68.96094466936573,65.51319838056679,44.131929824561404,19400.0
68.94259109311741,65.51082321187585,44.121106612685566,19433.33333333333
68.87457489878543,65.54828609986505,44.11516869095816,19466.666666666664
69.05991935483871,65.39551075268817,44.28959677419355,19500.0
68.91762483130904,65.5961673414305,44.055249662618095,19533.333333333336
68.96755735492577,65.5817004048583,44.054628879892036,19566.666666666668
68.94121951219512,65.6110840108401,44.004634146341466,19600.0
69.09935222672065,65.38547908232118,44.21916329284751,19633.33333333333
69.09619433198381,65.39649122807019,44.22542510121458,19666.666666666668
68.91025435073628,65.39507362784471,43.91469879518072,19700.0
69.12975806451611,65.38150537634408,44.24817204301075,19733.333333333336
68.96679906862074,65.39208327626353,43.95491028626216,19766.666666666664
69.28842818428184,65.39043360433604,44.42544715447154,19800.0
68.92328258853058,65.29614776013533,43.85619577672287,19833.33333333333
68.88887979483822,65.30356850548371,43.85172150379222,19866.666666666668
68.67924941788796,65.01169702780442,43.62136693603616,19900.0
68.96742547425474,65.52433604336044,43.95279132791328,19933.33333333333
69.13872072318861,65.27560608135872,44.31203944665114,19966.666666666664
68.97174089068828,65.50699055330635,44.05290148448044,20000.0
69.1783806878872,65.53856013672292,44.474097415082255,20033.333333333336
69.16684469130527,65.54913480025635,44.483577227088226,20066.666666666668
69.01746421704766,65.60628070925016,44.23736915189062,20100.0
69.06873531296732,65.62128818628499,44.340098269600496,20133.33333333333
69.12228865592407,65.66777488806069,44.35528326675068,20166.666666666668
69.20899804273803,65.62393758211115,44.50685041692361,20200.0
68.97922452467421,65.6588869899594,44.18935590685751,20233.333333333336
69.0098131216988,65.76220607555567,44.229991688339545,20266.666666666664
69.2378677462888,65.45379217273954,44.40437246963563,20300.0
68.88936572199731,65.56793522267206,44.03292847503374,20333.33333333333
68.99823848238482,65.62463414634146,44.17037940379405,20366.666666666668
68.92094466936572,65.56896086369771,44.01727395411606,20400.0
69.05666524246956,65.651383251442,44.27253791924803,20433.33333333333
69.11075957851837,65.72617100571091,44.365900742687074,20466.666666666664
68.94825910931175,65.5965991902834,43.97095816464236,20500.0
69.06978909013536,65.57259501582489,44.42881459613288,20533.333333333336
69.03882349786846,65.74316969193231,44.32814971713543,20566.666666666668
69.11949903866693,65.60628070925016,44.45762123477889,20600.0
68.96432653061225,65.65765986394558,44.120979591836736,20633.33333333333
68.90742547425474,65.57463414634147,44.070027100271005,20666.666666666668
68.68078911564626,65.2407074829932,43.84334693877551,20700.0
68.92753387533875,65.53287262872628,44.01140921409214,20733.333333333336
69.07879781420765,65.19204918032787,44.39166666666666,20766.666666666664
68.79243169398907,65.23363387978142,44.055464480874306,20800.0
69.02853028285737,65.23264407792843,44.19041925929951,20833.33333333333
69.19268556005399,65.3838866396761,44.4106342780027,20866.666666666668
69.03976202013676,65.63651537177624,44.413368868788034,20900.0
69.295607514529,65.63095012839574,44.59705365589945,20933.33333333333
69.01455782312925,65.51774149659865,44.150721088435375,20966.666666666664
69.07144226818244,65.24067935899193,44.277057937268864,21000.0
68.84402793692368,65.27167566977683,43.9621596551536,21033.333333333336
68.95249322493225,65.47533875338753,44.127615176151764,21066.666666666668
68.99547116276533,65.25083210563649,44.0863207289791,21100.0
68.82667648824139,65.32503955912043,43.876493697822895,21133.33333333333
68.72598274209012,64.98616627859198,43.87842761265581,21166.666666666668
68.85548644077045,65.32932285698696,43.911578545315656,21200.0
69.16844000654771,65.25817100452883,44.27805969334861,21233.333333333336
69.20366126480057,65.2422109455994,44.325939870136956,21266.666666666664
68.59373968533392,65.18648916272417,43.73718230828473,21300.0
68.90269826051228,65.42405149979456,44.038405697849605,21333.33333333333
68.85936050635675,65.42710208981285,43.987095542096355,21366.666666666668
69.12506876444053,65.38890416987567,44.2497524480141,21400.0
68.81367898510757,65.23370104798677,43.75598455598456,21433.33333333333
68.81293436293437,65.24100937672367,43.73734142305572,21466.666666666664
68.85628792057365,65.22584114726972,43.81161059018203,21500.0
68.83802586348011,65.31838271402849,43.78542587439297,21533.333333333336
69.09061772359951,65.26563484454185,44.09464456923709,21566.666666666668
68.894240290461,65.45189239740345,44.012735174386606,21600.0
68.64128483442428,65.1314939100174,43.837628082967385,21633.33333333333
68.61963156295744,65.15201480376723,43.82254812605297,21666.666666666668
68.54975557212694,65.16745380727485,43.8463004391416,21700.0
69.1262790185939,65.36412146550775,44.36043569149521,21733.333333333336
68.68972677595629,65.25926229508197,43.93789617486338,21766.666666666664
68.76035020852322,65.1035158947165,44.12677106636838,21800.0
68.31280159742637,64.78767541183649,43.594264795607074,21833.33333333333
68.62540392741735,65.18921755461653,43.90739359792305,21866.666666666668
68.28386776037783,64.72273317314331,43.46457867263236,21900.0
68.29862998502412,64.82153752287981,43.41957401963503,21933.33333333333
68.74232588843657,65.04750247551986,44.030063813400815,21966.666666666664
68.332187032004,64.85154473348494,43.49561817072494,22000.0
68.42828221199179,64.82225858339342,43.56994286982084,22033.333333333336
68.4916873207274,64.89523517781058,43.650199114428126,22066.66666666667
68.34810582949692,64.86724166620445,43.53566476232736,22100.0
68.86486038611318,65.13522247079294,44.094677824730034,22133.33333333333
68.69859419449278,65.24263264009723,43.78139586267849,22166.66666666667
68.66756337012589,64.70946807920572,43.87256642076653,22200.0
68.36901658439183,64.74649176327028,43.603777247767475,22233.333333333336
68.43537831741347,64.82572614107883,43.66768776629815,22266.666666666664
68.40138110821454,64.79491375006933,43.51744411781019,22300.0
68.31052748349879,64.82780520272894,43.44123356814022,22333.33333333333
68.5484418947896,64.7836475535381,43.82572614107885,22366.66666666667
68.90505410217779,65.41799753458429,44.012080536912755,22400.0
68.72833982379099,65.18786422514984,43.878007015218046,22433.33333333333
68.7506007125694,65.18137376750353,43.875079404535036,22466.666666666664
68.61835735504458,65.12886456155793,43.74752448014083,22500.0
69.03210519106972,65.34025475962197,44.25182851664156,22533.333333333336
68.91187508560472,65.43654293932339,43.987042870839616,22566.66666666667
69.09978319783197,65.49520325203252,44.30607046070461,22600.0
68.78142076502732,65.34975409836065,43.88133879781421,22633.33333333333
68.7783606557377,65.3331693989071,43.92879781420765,22666.66666666667
68.86447372055127,65.18239566934571,44.07263788770128,22700.0
69.13274645991493,65.74557152856296,44.35804662682389,22733.333333333336
69.15428184281843,65.48525745257453,44.38371273712737,22766.666666666664
68.99301465552665,65.47853718668675,44.02758526229285,22800.0
68.69878098890564,65.17589371318998,43.68045473222846,22833.33333333333
68.97307251596007,65.46426038085885,43.89327222131282,22866.66666666667
68.90803186555355,65.46483330605118,43.842882086538985,22900.0
69.06733235117586,65.34285480438697,44.092404648878706,22933.33333333333
68.67401331234292,65.27475350070429,43.834286187753754,22966.666666666664
68.90745901639345,65.29464480874317,44.20478142076503,23000.0
68.7916462585034,65.26955102040817,43.896462585034016,23033.333333333336
68.78854421768708,65.27738775510204,43.888789115646254,23066.66666666667
69.24241192411924,65.45983739837398,44.33186991869919,23100.0
69.03682926829268,65.54566395663957,44.12715447154471,23133.33333333333
69.33091156462585,65.53110204081635,44.68503401360545,23166.66666666667
69.00720867208672,65.50219512195122,44.331436314363145,23200.0
69.00227642276423,65.53742547425475,44.34308943089431,23233.333333333336
69.00159891598916,65.5459078590786,44.32311653116531,23266.666666666664
68.90289972899728,65.59238482384823,44.193766937669366,23300.0
68.86268892890271,65.37845801276805,44.02736399847221,23333.33333333333
68.62517006802722,65.28976870748299,43.927891156462586,23366.66666666667
69.12582655826559,65.45569105691057,44.468753387533866,23400.0
69.0081088435374,65.64048979591837,44.331428571428575,23433.33333333333
68.99872108843536,65.65610884353742,44.32468027210884,23466.666666666664
68.90068306010929,65.27915300546448,44.29390710382513,23500.0
68.84474622770921,65.41443072702333,44.06076817558299,23533.333333333336
69.06726530612245,65.63703401360544,44.25020408163265,23566.66666666667
69.04234013605442,65.67080272108844,44.18780952380953,23600.0
69.09989780981579,65.13569199326098,44.20935178280443,23633.33333333333
69.28368716614163,65.35554033694015,44.360361594302155,23666.66666666667
68.51674931129477,65.05931129476585,43.745537190082636,23700.0
68.6509090909091,65.00225895316805,44.05148760330579,23733.333333333336
68.44250744938594,64.99557214068896,43.606700270127256,23766.666666666664
68.22379753914988,64.50822147651007,43.53654921700224,23800.0
68.54755186721991,65.10567081604425,43.85706777316737,23833.33333333333
68.42156562421678,64.94227073992592,43.66843966693586,23866.66666666667
68.41471497396196,64.95285304519759,43.678994124035746,23900.0
68.32031726662599,64.88887348161296,43.55729657773586,23933.33333333333
68.6640387275242,65.01380359612725,44.06320885200553,23966.666666666664
68.43944415049152,64.91277952602411,43.69063465983458,24000.0
68.61875518672197,65.02677731673582,43.9790041493776,24033.333333333336
68.64030428769018,65.01712309820194,44.010871369294605,24066.66666666667
68.41243142387702,64.91035673508034,43.65287253891782,24100.0
68.80669432918396,65.00027662517289,44.23463347164592,24133.33333333333
68.74113927561153,65.25664207665427,43.95748516279328,24166.66666666667
68.28964446170059,64.80944589272839,43.50327250540796,24200.0
68.36689966303712,64.88688072628031,43.614971177142216,24233.333333333336
68.34576290066558,64.92066055863432,43.55362165473837,24266.666666666664
68.88676576626546,65.20303400077653,44.20741583005157,24300.0
68.7709523545399,65.26038604470575,43.990043818292754,24333.33333333333
68.09602049625443,64.36180344760365,43.3192514411429,24366.66666666667
68.21515176623305,64.73292457259646,43.32761620681086,24400.0
68.12450917597259,64.3183881478181,43.320281823498284,24433.33333333333
68.12478765769028,64.32922108663566,43.35066417889666,24466.666666666664
68.0765100671141,64.4744966442953,43.224468680089494,24500.0
68.14422568158399,64.33242362638893,43.358211033445656,24533.333333333336
68.0282937425158,64.38722882842741,43.136094015427894,24566.66666666667
68.90474217692712,65.08664070483609,44.21976413400724,24600.0
68.31543624161074,64.80815394469353,43.60441672004232,24633.33333333333
68.31783118438274,64.81205268874098,43.61449775822217,24666.66666666667
68.672888124688,65.2078872926951,43.969881857008154,24700.0
68.29480074633099,64.84836670472583,43.56339636302877,24733.333333333336
68.48263666490294,64.74791834916037,43.774012086106545,24766.666666666664
68.47662517289073,64.99159059474412,43.74359612724758,24800.0
68.30953918732975,64.3971525652186,43.594563477577154,24833.33333333333
68.30827553284097,64.39858470697256,43.63154643228215,24866.66666666667
67.98736017897092,64.46311521252797,43.2231543624161,24900.0
68.65078575965974,65.17289474411025,43.85500041428453,24933.33333333333
68.55511111111112,65.12319444444445,43.907472222222225,24966.666666666664
68.98798353909466,65.25909465020577,44.37272976680384,25000.0
69.114231292517,65.54144217687075,44.35112925170069,25033.333333333336
69.10508843537416,65.55303401360544,44.32114285714286,25066.66666666667
69.16822353102314,65.26785371866868,44.34299411039584,25100.0
68.95575948500206,65.32855773181757,44.04319956170388,25133.33333333333
69.08322147651008,65.2535543076291,44.22714696616902,25166.66666666667
68.91573757019586,65.35071907957814,44.04065196548418,25200.0
68.77028676021965,65.22724499417605,43.94461700593489,25233.333333333336
68.6997541911785,65.14820338608557,43.87535559422211,25266.666666666664
68.39759507829977,64.90262863534676,43.59689597315436,25300.0
68.7760377827492,65.05869030850388,44.09611401110283,25333.33333333333
68.64638574100562,65.12729673231378,43.748019584112654,25366.66666666667
69.01208599334315,65.28910896491516,44.15651770611666,25400.0
68.91954526777154,65.42511984659636,43.973976167648274,25433.33333333333
68.93510478016711,65.41613477605807,43.945212984522676,25466.666666666664
68.88433175905212,65.12541773690171,44.07421216891761,25500.0
68.97772032126747,65.47582242270877,44.07198261634944,25533.333333333336
68.98533432761621,65.07667025713259,44.24420692131356,25566.66666666667
68.6578009777115,65.14000055237938,43.90272599221146,25600.0
68.86465324384787,65.31499972717847,44.0131772794238,25633.33333333333
68.83082337534785,65.35226714683255,43.995662137829434,25666.66666666667
68.83647078081519,65.32640366672123,43.90055655590113,25700.0
69.06470346527873,65.29275441720313,44.17263388576907,25733.333333333336
68.89052701067224,65.4568159313456,44.0276983166465,25766.666666666664
69.02303794000822,65.26990823174907,44.17189426106013,25800.0
68.74710435159125,65.30642455076857,43.825909287724606,25833.33333333333
68.73830915782635,65.31110630006495,43.78696687594717,25866.66666666667
69.03762208763027,65.33355159054946,44.01871555628308,25900.0
68.65210694245792,65.11819232038728,43.6744966442953,25933.33333333333
69.0344573579964,65.27887815790909,44.14694167075899,25966.666666666664
69.01932249322492,65.53934959349594,44.05021680216802,26000.0
69.2097997490042,65.295602117095,44.34293665084302,26033.333333333336
69.22559611502156,65.293937905822,44.36574452992852,26066.66666666667
68.69165867689358,65.06147103136557,43.716915491028644,26100.0
68.95307469853222,65.38514214001201,44.021716593004854,26133.33333333333
68.74032645621014,65.19432706382744,43.770569226945064,26166.66666666667
69.16661268556004,65.38609986504724,44.282780026990565,26200.0
69.06875572066978,65.67291229203683,44.28826791579174,26233.333333333336
69.07858181230819,65.66453992354494,44.32043827060786,26266.666666666664
69.10674763832658,65.441673414305,44.300782726045895,26300.0
68.93491302561293,65.40161621695658,44.06018353650185,26333.33333333333
68.89351776068096,65.29445626671031,44.096224150160964,26366.66666666667
68.94230352303524,65.49571815718157,44.13439024390244,26400.0
69.11324476099165,65.28081084782907,44.265936173126974,26433.33333333333
69.10516367620875,65.28716614162444,44.28976852485961,26466.666666666664
68.97127371273713,65.47934959349594,44.229945799458,26500.0
69.23485094850949,65.41048780487803,44.61772357723577,26533.333333333336
68.69654421768708,65.19760544217688,43.989904761904754,26566.66666666667
68.75960449636811,65.15969287706797,43.953434418758796,26600.0
68.72657220979369,65.17231474576741,43.88897174579501,26633.33333333333
68.7125970116276,65.18645565774574,43.84050045571298,26666.66666666667
68.85179887776434,64.97216415447244,44.08920123225878,26700.0
68.76742066451239,65.16154334797139,43.92344021874224,26733.333333333336
68.79191880294862,65.03790295962152,44.02739575310815,26766.666666666664
68.78420765027322,65.30612021857924,43.94147540983607,26800.0
69.15760521256142,65.57784127323221,44.45487075411237,26833.33333333333
69.12668233283486,65.59124652851955,44.47073274941253,26866.66666666667
69.02142263452825,65.76561117516154,44.288709547684796,26900.0
69.0729817411588,65.72662680644555,44.29106898678177,26933.33333333333
68.98109378337962,65.65165028839992,44.20097201452681,26966.666666666664
69.21141700404857,65.37622132253712,44.438056680161935,27000.0
69.0306458964528,65.61093385526986,44.29828136311232,27033.333333333336
69.02244148322922,65.6133737297906,44.29820092768856,27066.66666666667
69.05268556005399,65.38604588394062,44.32523616734143,27100.0
68.94749147320938,65.46135438442073,44.05440642534933,27133.33333333333
68.91258731680593,65.40783454321327,43.92365429393232,27166.66666666667
68.90135597863306,65.39216545678674,43.923928229009725,27200.0
69.10538282427065,65.26018353650186,44.13543350225997,27233.333333333336
69.11464182988632,65.25629365840297,44.152581838104375,27266.666666666664
68.91395699219285,65.3115737570196,43.892946171757295,27300.0
69.10983056441853,65.30261854989547,44.185526460556716,27333.33333333333
68.94513080399946,65.29127516778524,43.92932475003425,27366.66666666667
68.90008273579703,65.17611693325979,43.739078874793165,27400.0
69.0269105691057,65.56929539295393,44.0019241192412,27433.33333333333
68.88645391042323,65.39802766744282,43.84330913573484,27466.666666666664
69.28306194300804,65.29601716360436,44.35397183408516,27500.0
68.96042201784185,65.49465572955506,44.168448090148324,27533.333333333336
69.08171966112884,65.32740125426339,44.41423698976784,27566.66666666667
68.91027615799318,65.41541973814503,44.154637473869506,27600.0
68.71310111487047,65.20802595817847,44.0592378945033,27633.33333333333
68.93285840026404,65.42422158653318,44.20566068874464,27666.66666666667
68.95002200462098,65.45552315986357,44.09605017053581,27700.0
69.1255913741886,65.37526130487403,44.28958081197052,27733.333333333336
69.08756830601092,65.65265027322404,44.20439890710382,27766.666666666664
69.27150273224044,65.54879781420765,44.434836065573776,27800.0
69.12836065573771,65.624043715847,44.22945355191258,27833.33333333333
69.18938271604938,65.69829903978052,44.335116598079566,27866.66666666667
69.11568306010929,65.62538251366121,44.24486338797814,27900.0
69.07158469945354,65.63278688524589,44.21016393442622,27933.33333333333
69.0270460704607,65.44420054200542,44.36154471544715,27966.666666666664
68.9046530612245,65.52957823129252,44.17295238095239,28000.0
69.12122950819672,65.51956284153006,44.50229508196721,28033.333333333336
69.07180952380952,65.43219047619048,44.48753741496599,28066.66666666667
68.99579234972677,65.57207650273224,44.316338797814204,28100.0
69.1698087431694,65.5375956284153,44.45915300546448,28133.33333333333
69.0448087431694,65.60581967213115,44.30256830601093,28166.66666666667
69.06059863945579,65.48634013605442,44.41265306122449,28200.0
69.09806010928962,65.65800546448088,44.31459016393442,28233.333333333336
69.09117486338798,65.65795081967214,44.31172131147541,28266.666666666664
69.18887074829932,65.52125170068028,44.44625850340135,28300.0
69.01944658378261,65.46168445373529,44.10545714600065,28333.33333333333
68.85157566216478,65.14839671886652,44.0429751153092,28366.66666666667
68.72955505841412,65.20559560306019,43.82735382660812,28400.0
69.08977203394531,65.19435354151646,44.1833989683288,28433.33333333333
69.05612174441407,65.12196536581324,44.12536249896429,28466.666666666664
68.82219478737997,65.38987654320988,43.98894375857339,28500.0
69.06989838324796,65.71807383971901,44.25495348151326,28533.333333333336
69.0912285443979,65.78907960535207,44.28360589268821,28566.66666666667
69.21862348178139,65.58712496983671,44.54165214360404,28600.0
69.09590163934425,65.6348087431694,44.263251366120215,28633.33333333333
69.0225850340136,65.56552380952381,44.213251700680274,28666.66666666667
69.14863387978141,65.60144808743169,44.28852459016392,28700.0
69.02261224489796,65.55711564625851,44.15238095238095,28733.333333333336
69.09230352303523,65.39233062330625,44.33349593495935,28766.666666666664
69.0194262295082,65.64639344262295,44.200081967213116,28800.0
68.7024150071515,65.08006931455607,43.6659973594455,28833.33333333333
68.7087688414567,65.07652106942459,43.66910551215757,28866.66666666667
68.66225657388051,65.09893827703819,43.631752668060294,28900.0
69.13523762754406,65.21345555737436,44.102962841708965,28933.33333333333
68.59638023985039,65.09998349653428,43.67345142479921,28966.666666666664
68.55710267620931,64.75788799465315,43.76334623631959,29000.0
68.63998674289502,65.17814234816473,43.793603446847285,29033.333333333336
68.67333185423485,65.26903877086916,43.87045870541905,29066.66666666667
68.84375949402049,65.09442925401166,44.013257104979715,29100.0
68.69622950819672,65.25997267759564,43.98450819672132,29133.33333333333
68.69737704918033,65.27489071038251,43.99680327868854,29166.66666666667
68.63059629353441,65.20625845830915,43.83655094318778,29200.0
69.0059319727891,65.63711564625851,44.222367346938775,29233.333333333336
69.00312925170068,65.64691156462585,44.20938775510204,29266.666666666664
68.6841256830601,65.39456284153006,43.839153005464475,29300.0
68.85128415300547,65.31284153005464,44.122650273224046,29333.33333333333
68.74765027322404,65.36931693989071,43.91937158469945,29366.66666666667
69.30344173441735,65.43111111111111,44.61829268292683,29400.0
69.07739729715179,65.69899854627685,44.38472513864212,29433.33333333333
69.09196144941582,65.67207774726754,44.371210897539434,29466.666666666664
69.07404934842982,65.63602862636189,44.30046998504593,29500.0
69.04024246955778,65.64110232856227,44.25226981414229,29533.333333333336
69.07145908993805,65.63092822046572,44.25688955351421,29566.66666666667
69.06684434394013,65.66332848758951,44.2358531201206,29600.0
68.87609289617487,65.21756830601093,44.14374316939891,29633.33333333333
68.87420765027322,65.21418032786885,44.14308743169399,29666.66666666667
68.87924763869286,65.46544891976984,44.08272717403105,29700.0
68.92680327868852,65.20191256830601,44.19827868852459,29733.333333333336
68.74314359101831,65.2118098710194,43.84041759880686,29766.666666666664
69.16759021489389,65.75448033518043,44.41359643195028,29800.0
69.077620183929,65.76260825267447,44.299380647237044,29833.33333333333
69.14714908738492,65.82135357777419,44.39358208151618,29866.66666666667
69.37066666666666,65.4907755102041,44.709061224489794,29900.0
69.11338775510204,65.54239455782313,44.33551020408164,29933.33333333333
69.17249662618084,65.43114709851552,44.47457489878543,29966.666666666664
68.97363143631436,65.56116531165311,44.18845528455285,30000.0
69.14585365853658,65.48501355013549,44.512520325203255,30033.333333333336
69.17178861788618,65.47932249322493,44.500514905149046,30066.66666666667
68.80385008423785,65.30339437125419,43.847156627171536,30100.0
69.1701684700726,65.42561292973565,44.257444185728,30133.33333333333
68.61389565795304,65.01838723969871,43.5176395657953,30166.66666666667
68.89638574100562,65.13142259874574,43.95035207393553,30200.0
68.63424188467333,65.0628407067525,43.58849472674977,30233.333333333336
68.5815736345283,64.98060238991651,43.48548589512741,30266.666666666664
68.85556716910551,65.03174166574979,44.01020464297503,30300.0
68.30338396247487,64.59216551262006,43.366791378155014,30333.33333333333
68.68101392201453,64.70023295801211,43.9160241832603,30366.66666666667
68.70422846410915,65.1361338967603,43.918744994061925,30400.0
68.64071955110573,65.08237979975794,43.83108702827594,30433.33333333333
68.6374738695126,65.09816811530422,43.82289030696447,30466.666666666664
68.24194216587954,64.7190874692739,43.42665782859667,30500.0
68.74711189349763,65.03457476069975,43.92876003960831,30533.333333333336
68.67984091474024,65.18319661943823,43.83525285165854,30566.66666666667
68.85171375700831,65.06319220040324,44.060154113845385,30600.0
68.75493689065651,65.1694423730218,43.85187947082056,30633.33333333333
68.75294832490954,65.1727014113293,43.821940508741406,30666.66666666667
69.05636492606537,65.24073770939053,44.142276422764226,30700.0
68.99389124777429,65.40567045610189,43.92439391864129,30733.333333333336
69.04657063349157,65.27887815790909,44.05710154416982,30766.666666666664
68.7339091209154,65.1262790185939,43.719853669270535,30800.0
69.02170850940426,65.10395779821582,44.20009942828735,30833.33333333333
69.30382880404885,65.38505336120585,44.48481681153042,30866.66666666667
68.73941503024278,65.14665672383794,43.804457701549424,30900.0
68.8345443452216,65.21820400465916,43.953713461645116,30933.33333333333
68.98014082957421,65.4551655847728,44.04365166685004,30966.666666666664
69.1759269446584,65.35419188029486,44.29934536252613,31000.0
68.96820332269779,65.42105842226867,44.07641104631972,31033.333333333336
68.97587743426119,65.41599735944547,44.087963472329186,31066.66666666667
69.16503401360545,65.49442176870748,44.37300680272109,31100.0
68.77341530054646,65.27885245901639,43.95467213114754,31133.33333333333
69.03118367346939,65.58838095238096,44.177414965986394,31166.66666666667
68.94889795918368,65.56805442176871,44.12402721088437,31200.0
69.09858503401361,65.46405442176871,44.409088435374144,31233.333333333336
69.1087074829932,65.46903401360545,44.420217687074825,31266.666666666664
69.0018775510204,65.55390476190476,44.184462585034005,31300.0
69.24712925170068,65.45651700680273,44.51031292517007,31333.33333333333
68.87615912208504,65.280658436214,44.10170096021948,31366.66666666667
68.76513661202186,65.23860655737704,44.013989071038246,31400.0
69.03292517006804,65.57224489795918,44.15268027210885,31433.33333333333
69.04016326530612,65.56380952380952,44.138829931972786,31466.666666666664
68.91368852459017,65.18926229508197,44.201448087431686,31500.0
68.71138177700445,65.21236225039357,43.86063468390091,31533.333333333336
68.84508746836836,65.05712949719441,43.96526020464297,31566.66666666667
68.42398358200677,64.84311387209496,43.544567086360864,31600.0
68.9988888888889,65.57837398373984,44.20051490514905,31633.33333333333
69.10497959183674,65.62345578231293,44.32274829931973,31666.66666666667
68.95411924119242,65.55842818428185,44.176504065040646,31700.0
69.02331187508561,65.37460621832625,44.2669497329133,31733.333333333336
68.87790713600877,65.4928092042186,44.02213395425285,31766.666666666664
69.16582655826558,65.50143631436315,44.40113821138211,31800.0
68.8654704834954,65.41687440076703,44.018079715107525,31833.33333333333
68.8546226544309,65.42733872072318,43.986604574715784,31866.66666666667
68.7591256830601,65.27620218579234,44.00773224043716,31900.0
68.69218659375261,65.19040517027095,43.82497859529926,31933.33333333333
68.93133924379264,65.08567404093131,44.0146932913525,31966.666666666664
68.70307514578062,65.11304874023546,43.71688304543955,32000.0
68.92907448835861,65.12820725274119,44.109012069489324,32033.33333333333
68.93470875797497,65.11528157538598,44.146684342806644,32066.66666666667
68.7311860490703,65.10600726152492,43.78121905600176,32100.0
68.42315158910644,64.79258416994841,43.4444783404515,32133.33333333333
68.09320153885035,64.52278790261435,43.20319564179607,32166.666666666664
68.49786961485978,64.80681723244871,43.76315129911721,32200.000000000004
68.6209704037848,65.14027945868632,43.76730113323797,32233.333333333336
68.6177797337441,65.14979645725603,43.73484431730665,32266.666666666664
68.91618989987897,65.05699196831334,44.12949719441081,32300.0
68.62537132797888,65.14159973594455,43.73566949059303,32333.333333333336
68.58936626691606,65.18767191110133,43.79827263725383,32366.66666666667
68.595169985697,65.18646165694797,43.761194850918685,32400.0
68.96267801604189,65.3214383150543,44.153898619523105,32433.33333333333
68.80674829931975,65.2098775510204,44.112299319727896,32466.66666666667
68.62581142039828,65.19540103421717,43.774480140829574,32500.0
68.82424837671195,65.4162165111584,44.006956948764106,32533.33333333333
68.89978319783198,65.62848238482384,44.1120325203252,32566.66666666667
69.08739837398375,65.5210569105691,44.35067750677507,32600.0
68.87133603238867,65.52674763832658,44.024777327935226,32633.33333333333
68.89009446693657,65.52661268556004,44.04780026990554,32666.666666666664
69.01605442176871,65.64897959183673,44.18737414965986,32700.000000000004
69.06535519125683,65.70562841530055,44.265491803278685,32733.333333333336
69.38521857923497,65.57021857923498,44.71161202185792,32766.666666666664
69.10868852459016,65.63270491803279,44.35896174863388,32800.0
69.12762295081967,65.65142076502732,44.386639344262285,32833.333333333336
69.14060109289618,65.65106557377051,44.41658469945354,32866.666666666664
69.1039344262295,65.62505464480874,44.334754098360655,32900.0
69.03223118279571,65.34408602150539,44.256612903225815,32933.33333333333
68.9255060728745,65.52987854251012,44.162860998650466,32966.66666666667
68.9788747931605,65.1034749034749,44.133480419194704,33000.0
68.82479125466931,65.10047242364315,43.79229839595693,33033.33333333333
68.88634255470072,65.28894527200306,43.95583019588585,33066.66666666667
68.8029828609097,65.15359261700725,43.7667270929466,33100.0
68.76090604026845,65.30128274518293,43.77546546871617,33133.333333333336
68.79685240796353,64.97917361806249,43.92595373150929,33166.666666666664
68.72922363078963,65.18079376916066,43.92457259645924,33200.0
69.14260380858842,65.23252578163364,44.30796093195831,33233.333333333336
68.96581032016725,65.02604797007372,44.17809990097921,33266.666666666664
68.96525745257452,65.53360433604335,44.132655826558256,33300.0
68.75497267759563,65.35218579234973,43.99303278688525,33333.333333333336
68.61178347452966,65.18772692265375,43.76746616789526,33366.666666666664
68.73638464077456,65.10713499834965,43.97612498624712,33400.0
68.59929585212896,65.18261084827814,43.76919903179668,33433.33333333333
68.61401144240291,65.1730113323798,43.75530861480911,33466.66666666667
68.82269776653098,65.02164704587963,44.056249312355604,33500.0
68.64135218395863,65.14495544064253,43.890637033777104,33533.33333333333
68.79360768175583,65.34507544581618,44.087078189300414,33566.66666666667
68.58375508856861,65.11500165034657,43.805506656397846,33600.0
68.92743484224965,65.25728395061728,44.21670781893003,33633.333333333336
68.94411522633743,65.24521262002743,44.227956104252385,33666.666666666664
68.77495198902606,65.32622770919069,44.055747599451294,33700.0
69.26503401360544,65.4941768707483,44.5181224489796,33733.333333333336
68.9840544217687,65.5138231292517,44.268,33766.666666666664
69.06928961748632,65.58224043715848,44.34087431693989,33800.0
69.02032786885246,65.58628415300547,44.34161202185793,33833.333333333336
68.9599455782313,65.51564625850341,44.280081632653065,33866.666666666664
69.31060688307458,65.67793942025838,44.76932472044295,33900.0
69.14288065843621,65.65358024691358,44.39868312757201,33933.33333333333
69.2051912568306,65.50103825136613,44.488306010928966,33966.66666666667
68.74615896611016,65.23512119363248,43.885157246658146,34000.0
68.94556606887447,65.46795577071185,44.060787765430746,34033.33333333333
68.96050170535813,65.46413246781825,44.08832104741996,34066.66666666667
69.08208504801097,65.71997256515775,44.31086419753086,34100.0
69.14710382513661,65.58948087431693,44.48172131147541,34133.333333333336
69.04489071038252,65.64103825136613,44.29196721311474,34166.666666666664
69.26789115646257,65.46987755102042,44.60590476190475,34200.0
68.97752380952382,65.54244897959185,44.22974149659864,34233.333333333336
68.96985034013606,65.55107482993198,44.227292517006795,34266.666666666664
69.11561904761905,65.45363265306123,44.40914285714286,34300.0
69.11838797814208,65.55918032786886,44.36592896174864,34333.333333333336
69.19597278911564,65.47172789115646,44.4305850340136,34366.666666666664
69.10688524590164,65.62669398907103,44.29729508196721,34400.0
69.29144808743169,65.55898907103824,44.504098360655746,34433.33333333333
69.31390710382513,65.54734972677596,44.51713114754099,34466.66666666667
69.07800546448087,65.62521857923497,44.28516393442622,34500.0
69.01031466607988,65.45574320607328,44.08056441852789,34533.33333333333
68.90202442512928,65.52591044119265,44.03614258994389,34566.66666666667
69.09943338101003,65.40485752007922,44.368467378149404,34600.0
68.95751686909581,65.51848852901486,44.109230769230784,34633.333333333336
68.95818428184282,65.50013550135503,44.11772357723577,34666.666666666664
69.04164940481122,65.07664263816389,44.24464882481288,34700.0
68.98970004109026,65.39887686618272,44.006820983426934,34733.333333333336
68.96942884536365,65.4222435282838,44.07231886043008,34766.666666666664
68.72868711520329,65.26582173165455,43.81715569360475,34800.0
69.0854329409176,65.40339971393993,44.31221806579381,34833.333333333336
69.10807019474089,65.38656617889757,44.34866321927605,34866.666666666664
68.92925170068027,65.59259863945579,44.15178231292518,34900.0
68.89737127371274,65.51726287262872,44.08127371273713,34933.33333333333
68.88853658536586,65.50997289972901,44.10550135501353,34966.66666666667
69.0810298102981,65.41384823848239,44.4160162601626,35000.0
68.94056910569105,65.48479674796747,44.18894308943089,35033.33333333333
68.94552845528457,65.47934959349594,44.171761517615174,35066.66666666667
69.04533875338754,65.40233062330623,44.37441734417345,35100.0
68.86242914979758,65.41883940620782,44.12512820512821,35133.333333333336
69.14467741935484,65.34704301075269,44.435725806451615,35166.666666666664
68.90836707152496,65.50871794871794,44.17738191632929,35200.0
68.93634146341464,65.49154471544715,44.22653116531166,35233.333333333336
68.93249322493224,65.49132791327914,44.21991869918699,35266.666666666664
68.90260162601625,65.47693766937671,44.15815718157181,35300.0
69.19609109998386,65.58229688257147,44.51569482582243,35333.333333333336
68.97989203778678,65.4851551956815,44.12885290148448,35366.666666666664
69.04487074829932,65.56364625850341,44.19344217687075,35400.0
68.95013550135499,65.48439024390244,44.05986449864497,35433.33333333333
68.91962059620596,65.49563685636856,44.02872628726287,35466.66666666667
69.0199730094467,65.36415654520918,44.28947368421053,35500.0
68.97346883468835,65.50151761517616,44.18029810298104,35533.33333333333
69.07478494623656,65.38787634408602,44.19795698924731,35566.66666666667
68.9748717948718,65.41786774628879,44.14753036437247,35600.0
69.22002699055331,65.35112010796222,44.51411605937921,35633.333333333336
69.15957161981258,65.30144578313252,44.430763052208825,35666.666666666664
68.94893481209606,65.58831351897656,44.21620255857869,35700.0
68.99238944669942,65.66281243324076,44.38343836787011,35733.333333333336
68.9437620166631,65.63784447767571,44.281937620166644,35766.666666666664
68.95775475325784,65.64799188207647,44.3238357188635,35800.0
69.00839209587902,65.71405206853098,44.32305547363058,35833.333333333336
68.97632517360645,65.73038045955438,44.297986433225184,35866.666666666664
69.16809976500748,65.50344477675709,44.568601794488366,35900.0
68.94628726287263,65.48262872628726,44.18769647696477,35933.33333333333
68.96323886639676,65.50690958164644,44.14183535762484,35966.66666666667
68.90926829268292,65.49124661246614,44.17924119241192,36000.0
68.96408854730461,65.13249621130115,44.19327776575016,36033.33333333333
69.04195310164933,65.19384289324239,44.28954161345543,36066.66666666667
69.04470198675497,65.59129993591112,44.32551805169835,36100.0
69.31788079470199,65.48603396710105,44.697927793206574,36133.333333333336
68.95635627530365,65.48188933873145,44.276896086369774,36166.66666666666
68.9058228948727,65.30905089259028,44.01918321875936,36200.0
68.76353106733059,65.26466767698636,43.930369127516784,36233.333333333336
68.7755195929855,65.25441112794977,43.964115609439276,36266.66666666666
69.04715053763441,65.35376344086022,44.4256182795699,36300.0
68.94833333333334,65.4380376344086,44.22586021505376,36333.333333333336
69.00268817204301,65.49502688172043,44.124731182795706,36366.66666666666
69.0559175389874,65.6454016235847,44.30802713095493,36400.0
69.25002010885594,65.61683245301231,44.67555031235756,36433.33333333333
69.14688259109312,65.44504723346829,44.45740890688259,36466.66666666667
69.05665335013539,65.76628147035953,44.40378582727835,36500.0
69.13727395411607,65.51322537112011,44.36151147098516,36533.33333333333
68.99975244801408,65.52172956320828,44.1823082847398,36566.66666666667
69.318231292517,65.50492517006803,44.636081632653074,36600.0
69.01447619047619,65.50791836734696,44.33167346938776,36633.333333333336
69.00326530612247,65.51385034013606,44.31140136054422,36666.66666666666
69.11067750677506,65.38474254742547,44.381490514905146,36700.0
68.61500165034657,65.03501485311915,43.84704037847949,36733.333333333336
69.05585365853659,65.38433604336043,44.40468834688347,36766.66666666666
68.62262075035758,65.07258774342613,43.83039938387061,36800.0
69.14165474749697,65.37094289800858,44.30880734954341,36833.333333333336
69.15972604246892,65.36876994168776,44.34662779183628,36866.66666666666
68.75478395917689,65.26648732597482,43.948638304953136,36900.0
69.09217185608978,65.3961656947959,44.340136428650034,36933.33333333333
68.707266550667,65.15137956748697,43.86715276051592,36966.66666666667
69.0070127379811,65.35510204081632,44.171675112998216,37000.0
68.88659087796192,65.40794411724421,43.946034789754826,37033.33333333333
68.88659087796192,65.39945212984523,43.97775647171621,37066.66666666667
69.30907103825136,65.58704918032787,44.60289617486339,37100.0
68.99763450324568,65.49713939927385,44.17092089338761,37133.333333333336
69.06835694755158,65.56364791338692,44.212831772861605,37166.66666666666
68.86368319919796,65.32582360968003,43.99345567963463,37200.0
69.13040488502585,65.3929750247552,44.3665419738145,37233.333333333336
69.13785895037958,65.40152932115744,44.3631587633403,37266.66666666666
69.09666639047698,65.56508409975972,44.19581848813765,37300.0
69.22821138211383,65.52934959349594,44.4179403794038,37333.333333333336
68.86882245271508,65.23412280215209,43.942731155360796,37366.66666666666
68.70313015733304,65.0943173066344,43.707916162394106,37400.0
68.71715414146436,65.17187284226807,43.790731074101686,37433.33333333333
68.72212555583175,65.16353191371834,43.798298671527604,37466.66666666667
68.41981608164181,64.61517326455086,43.474655153078395,37500.0
68.50992729306488,64.89203020134228,43.603439597315436,37533.33333333333
68.67676627029435,64.75309810910913,43.88908073184996,37566.66666666667
68.6277239207888,65.12511392824592,43.789212030822775,37600.0
68.67738282652526,65.1307205788936,43.85593945922059,37633.333333333336
68.68188471842461,65.13163200486096,43.8365785621565,37666.66666666666
68.41378635346756,64.92553131991053,43.593624161073826,37700.0
68.52000891141496,64.78492856943942,43.73070817900805,37733.333333333336
68.09862121254667,64.5049563337171,43.30667490382185,37766.66666666666
68.52722158790276,64.76415383330085,43.831824890695934,37800.0
68.36205408114957,64.87663259906986,43.612325600824306,37833.333333333336
68.70450385490044,65.2735592656276,43.913029008819116,37866.66666666666
69.15412244897959,65.49872108843536,44.44027210884354,37900.0
68.73228933631619,65.22227746015965,43.856270886845095,37933.33333333333
69.06105745621214,65.29167348720468,44.119686800894854,37966.66666666667
68.9184263654717,65.39220821738421,43.859196813444655,38000.0
68.95401441710167,65.1741375977021,43.95857154693844,38033.33333333333
68.95277156350983,65.17919186897562,43.93788493937637,38066.66666666667
68.75049023669456,65.1437014941862,43.858756594028776,38100.0
68.80165289256198,65.22608020411559,43.93668534028509,38133.333333333336
68.72140746264535,65.20479465296765,43.81401386472229,38166.66666666666
69.13000958772771,65.31927133269416,44.263361183399546,38200.0
68.94093414088503,65.30924319310307,43.90614939706444,38233.333333333336
68.94418071697497,65.32362088721558,43.86484421891199,38266.66666666666
69.15767703054378,65.2902616079989,44.201534036433365,38300.0
68.9718668675524,65.37482536638817,43.972853033830994,38333.333333333336
68.99535762483131,65.51530364372469,44.14582995951417,38366.66666666666
68.96234817813766,65.51417004048584,44.12542510121458,38400.0
69.17148299319729,65.51507482993198,44.46234013605442,38433.33333333333
69.17297959183674,65.53082993197279,44.455020408163264,38466.66666666667
69.16553588322746,65.73299094472226,44.533801865116914,38500.0
69.39799972969321,65.65260170293283,44.8162724692526,38533.33333333333
69.17415867009056,65.72382754426275,44.457764562778756,38566.66666666667
69.03537414965986,65.55512925170068,44.291591836734696,38600.0
69.02171428571428,65.57014965986394,44.24536054421769,38633.333333333336
69.02470748299321,65.57809523809524,44.21088435374151,38666.66666666666
69.05306233062329,65.47463414634146,44.34715447154471,38700.0
69.04502243110447,65.67910168767358,44.24909207434309,38733.333333333336
69.13771095919675,65.64128925443282,44.4918286690878,38766.66666666666
69.11515671501729,65.73909429712845,44.35965359144167,38800.0
68.96463414634147,65.59826558265583,44.136449864498644,38833.333333333336
69.02674829931972,65.66604081632653,44.23817687074831,38866.66666666666
69.10219135303936,65.84105960264901,44.319092230657404,38900.0
69.27371584699453,65.63918032786886,44.4079781420765,38933.33333333333
68.62043555677305,65.09059033009177,43.65881386111492,38966.66666666667
69.31211382113821,65.40235772357724,44.46338753387534,39000.0
68.9549593495935,65.53271002710026,44.09346883468834,39033.33333333333
68.94810298102979,65.53344173441734,44.08761517615177,39066.66666666667
69.11154471544715,65.39276422764227,44.364715447154474,39100.0
68.9934693877551,65.53020408163265,44.22146938775511,39133.333333333336
69.17122020537846,65.60691208408183,44.529667265463715,39166.66666666666
68.92295392953929,65.47113821138211,44.1519241192412,39200.0
68.97688346883469,65.48447154471545,44.177154471544725,39233.333333333336
69.06552522478867,65.67506595595758,44.36771119366822,39266.66666666666
68.98088623270338,65.66742044903893,44.372153125504774,39300.0
69.11104761904761,65.50459863945578,44.41404081632653,39333.333333333336
68.96636734693878,65.59586394557822,44.19921088435376,39366.66666666666
68.76941015089163,65.37703703703704,44.12962962962962,39400.0
68.67347050754458,65.41522633744856,44.04065843621399,39433.33333333333
68.6865843621399,65.39196159122086,44.07034293552812,39466.66666666667
69.31174863387979,65.5529781420765,44.75655737704919,39500.0
69.07087431693989,65.63770491803278,44.43830601092896,39533.33333333333
69.03325236167342,65.46971659919029,44.38199730094467,39566.66666666667
69.02721088435375,65.59346938775509,44.27948299319728,39600.0
69.0636765428057,65.28166093741474,44.125279642058175,39633.333333333336
69.1948238482385,65.44823848238482,44.384146341463406,39666.66666666666
68.87199214274023,65.37881268074426,43.87742129099144,39700.0
68.94559139784947,65.46166666666667,44.046639784946244,39733.333333333336
68.58647816041369,65.1000660138629,43.658240730553416,39766.66666666666
68.99460347897549,65.30091768250925,44.13762498287907,39800.0
68.87237409286843,65.34484640148415,43.858542041796255,39833.333333333336
68.86255251814265,65.35106673214383,43.81710045288372,39866.66666666666
68.96794347138102,65.26207235226715,44.104081409941614,39900.0
68.80223168003492,65.34511922300432,43.865853658536594,39933.33333333333
68.9537323654294,65.24563758389262,44.206273113272154,39966.66666666667
68.85889604163813,65.2653883029722,44.013203670730036,40000.0
68.84712365591398,65.34147849462366,43.95725806451613,40033.33333333333
68.88078272604588,65.44321187584346,44.02704453441296,40066.66666666667
68.81317139001351,65.464669365722,44.00037786774629,40100.0
68.90672043010753,65.30768817204303,44.170080645161285,40133.333333333336
68.94756462585035,65.50157823129254,44.139265306122454,40166.66666666666
69.04788617886179,65.36325203252032,44.24544715447154,40200.0
68.92292682926829,65.46542005420054,44.03384823848239,40233.333333333336
68.93081300813009,65.46132791327913,44.0430081300813,40266.66666666666
68.57280778963583,65.09671030916492,43.69223786995269,40300.0
68.69109289617487,65.26956284153006,43.83510928961749,40333.333333333336
68.68475629882275,65.03322697766531,43.79876774122565,40366.66666666666
68.68298947717292,65.16060430303533,43.66512000441904,40400.0
69.01704918032786,65.20877049180328,44.197322404371576,40433.33333333333
69.0325956284153,65.19967213114754,44.24912568306012,40466.66666666667
69.12517907825382,65.72436815785917,44.31393431544804,40500.0
69.07042176870749,65.51526530612246,44.173877551020404,40533.33333333333
68.72245698345624,65.1436462562488,43.84033474190074,40566.66666666667
68.84671472367222,65.08970641036264,44.02806087220704,40600.0
68.38415885517777,64.7498197348716,43.560569083143825,40633.333333333336
68.39455876643186,64.7499306672583,43.536885018581174,40666.66666666666
68.66880294861922,65.03644515348223,43.78306194300804,40700.0
68.25594498301433,64.67807330074295,43.42320545750822,40733.333333333336
68.4479449775362,64.67726995396306,43.711825392423314,40766.66666666666
68.4114288896934,64.79267036119079,43.562588766047504,40800.0
68.90285322359397,65.21747599451304,44.146419753086434,40833.333333333336
68.92189300411522,65.20128943758573,44.16581618655693,40866.66666666666
68.71868852459016,65.19606557377051,43.88726775956285,40900.0
68.95825136612021,65.09060109289618,44.357650273224046,40933.33333333333
68.6739028364681,65.04057226503163,43.87032894191732,40966.66666666667
68.6560677742326,64.94922433711079,43.85897788535594,41000.0
68.72530054644808,65.17486338797815,43.935792349726775,41033.33333333333
68.69365039909411,65.07523407075979,43.79700057999835,41066.66666666667
68.77706568379361,64.96226207503575,44.03330949499395,41100.0
68.34747424531169,64.61170491893833,43.45449774905405,41133.333333333336
68.40756558877364,64.74072327916134,43.50585168339897,41166.66666666666
68.30226199353716,64.70834369044661,43.330737150274814,41200.0
68.10297298796385,64.20222974097287,43.325115092351204,41233.333333333336
68.15333203375198,64.28703110640787,43.410621292712136,41266.66666666666
67.99151367241666,64.28124133340728,43.08300515835598,41300.0
68.08092517610517,64.19371568029285,43.29219590659493,41333.333333333336
67.9488047035332,64.28063120528039,43.09293360696656,41366.66666666666
68.84854129571292,64.8544856868922,44.03098205725242,41400.0
68.53252032520325,64.83065968243575,43.586047907458926,41433.33333333333
68.53713100889398,64.82588530583293,43.58782124734,41466.66666666667
68.56531347192667,64.82779505647406,43.62121460140776,41500.0
68.81906366328832,65.12477243702959,43.74637937124691,41533.33333333333
68.7153925901675,64.78542587439297,43.745430239537285,41566.66666666667
68.34863424199739,64.64335625707736,43.35214185102328,41600.0
68.49106526362307,64.59590686883752,43.56069268373519,41633.333333333336
68.6738979086023,64.71714611935727,43.81706535965914,41666.66666666666
68.14746621621622,64.18564189189189,43.1928490990991,41700.0
68.64009022807653,64.75156645966192,43.89217187891615,41733.333333333336
68.41457328697993,64.67637658405293,43.526690591005945,41766.66666666666
68.29029642058164,64.3890100671141,43.6026845637584,41800.0
67.92036546162089,64.15698494162766,43.06384298685917,41833.333333333336
67.89650893914613,64.17892391856071,43.025858665613896,41866.66666666666
67.80046185425932,63.50903751853119,42.829199452617175,41900.0
67.53132157581311,63.68237517178195,42.55597228584517,41933.33333333333
68.41432098765432,64.8846913580247,43.71407407407408,41966.66666666667
68.06293222683264,64.58572614107885,43.320193637621024,42000.0
68.18534435261708,64.39154269972452,43.427079889807175,42033.33333333333
68.18867768595041,64.37873278236914,43.48790633608815,42066.66666666667
68.43964187327823,64.95366391184574,43.75148760330577,42100.0
68.573608815427,64.83112947658402,43.939035812672174,42133.333333333336
68.08926694329183,64.51305670816043,43.36567081604426,42166.66666666666
68.09701244813277,64.51706777316735,43.30500691562932,42200.0
67.96379737670222,64.36004901278231,43.10891419978278,42233.333333333336
67.954718872706,64.36216547383664,43.12272689297947,42266.66666666666
68.4716598079561,64.76743484224966,43.82285322359397,42300.0
68.42349862258953,64.90947658402203,43.70187327823693,42333.333333333336
68.98889039059333,65.17067171239357,44.42811190701447,42366.66666666666
68.75160134621648,65.31036260992292,44.14840951036804,42400.0
68.78102269026165,65.31291390728478,44.11760395179677,42433.33333333333
68.77434589078274,65.33085441320159,44.11670828357399,42466.66666666667
68.49647926064472,65.00090769061504,43.723759489492785,42500.0
68.71377489272747,64.89198481681153,43.9750247551986,42533.33333333333
68.69983606557378,65.12333333333333,43.965355191256826,42566.66666666667
68.75838926174497,65.21623237236095,43.91071380050539,42600.0
68.69051436024236,65.16145422927478,43.734233622259055,42633.333333333336
68.687416786675,65.15563948591148,43.7482542184061,42666.66666666666
68.97528237027336,65.15719975991706,44.03740383041414,42700.0
68.81387386897806,65.15819362551966,43.754340678749024,42733.333333333336
68.89666666666666,65.35032258064516,43.98497311827957,42766.66666666666
68.43566868554592,64.90298466743057,43.45937687564796,42800.0
68.81460073962471,64.89423366662103,44.01498424873304,42833.333333333336
68.82070949185044,64.8812491439529,44.04382961238187,42866.66666666666
68.52485960827285,64.912998219422,43.73839200109574,42900.0
68.7578231292517,65.05151020408164,44.206612244897954,42933.33333333333
68.70448087431694,65.20478142076503,44.08232240437157,42966.66666666667
68.38504801097393,64.75917695473251,43.68008230452675,43000.0
68.57749659863946,65.06155102040816,43.82372789115647,43033.33333333333
68.53558265582656,64.97170731707317,43.75460704607046,43066.66666666667
68.763537414966,64.97308843537415,44.16340136054421,43100.0
68.35827160493828,64.72068587105625,43.68765432098765,43133.333333333336
68.93692324394745,65.2507599609163,44.361741396156766,43166.66666666666
68.72657691890132,65.34447942677235,44.15077081750081,43200.0
68.6239455782313,65.04214965986395,43.88386394557824,43233.333333333336
68.69598360655738,65.11726775956285,43.966530054644814,43266.66666666666
68.69650273224043,65.17483606557377,43.85062841530055,43300.0
69.01073282069396,65.0574953128821,44.1287123332337,43333.333333333336
68.54628133132448,64.92633885769074,43.557512669497335,43366.66666666666
68.95807588075881,65.37745257452575,44.05813008130081,43400.0
68.80984340044742,65.20720794456267,43.80823375347848,43433.33333333333
68.61362636153592,64.9794806909451,43.6541973814501,43466.66666666667
69.01415943689638,65.08397446390572,44.10986522616904,43500.0
68.5340364333653,64.8937953704972,43.54255581427202,43533.33333333333
68.66159643525141,64.88948179117615,43.86233359005392,43566.66666666667
68.49727692815493,64.96473759489493,43.662806689404775,43600.0
68.81101219011094,65.30987535953979,43.94978770031503,43633.333333333336
68.53727032676862,65.02134448234129,43.66079876774122,43666.66666666666
68.50730521722319,65.09379401773138,43.730135056756986,43700.0
68.71812080536913,65.02065898859337,43.95249537382275,43733.333333333336
68.64709634477785,65.15536080758778,43.90046591602418,43766.66666666666
68.90101092896175,65.0868306010929,44.28051912568306,43800.0
68.63536351165979,65.2441975308642,43.97953360768176,43833.333333333336
68.64156378600822,65.23711934156378,43.94721536351166,43866.66666666666
68.62475409836065,65.13273224043715,43.917786885245896,43900.0
68.52912420250229,65.04490844311874,43.72886458419644,43933.33333333333
68.7967352537723,65.13454046639232,44.22954732510289,43966.66666666667
68.68378600823046,65.20644718792867,44.02540466392317,44000.0
68.68266117969821,65.2041426611797,44.01711934156378,44033.33333333333
68.42171507607192,64.8850622406639,43.76412171507607,44066.66666666667
68.30968188105118,64.86821576763485,43.67507607192255,44100.0
68.85102880658437,65.11692729766804,44.22299039780521,44133.33333333334
68.3410743801653,64.84471074380166,43.66151515151515,44166.66666666666
68.55515151515152,64.74774104683196,43.82465564738292,44200.0
68.40881542699725,64.81812672176311,43.649944903581286,44233.33333333334
68.40534435261708,64.82749311294765,43.60953168044077,44266.66666666666
68.49236335515232,64.49736238848841,43.661860966111526,44300.0
68.64748633879782,65.17890710382514,43.935437158469945,44333.33333333334
68.29544581618656,64.81349794238683,43.64342935528121,44366.66666666666
68.23887517146777,64.82290809327847,43.53050754458161,44400.0
68.32526859447069,64.56881266053526,43.62540392741735,44433.33333333333
68.42485596707819,64.76203017832647,43.77130315500685,44466.66666666667
68.89634146341463,65.44810298102979,44.03653116531165,44500.0
68.83728924537567,65.28397992033611,43.8494843673269,44533.33333333333
68.80970698968734,65.3042505592841,43.79614776013532,44566.66666666667
69.06823848238483,65.32962059620596,44.19062330623304,44600.0
68.9149593495935,65.38688346883468,44.02352303523036,44633.33333333334
68.79519288481475,65.20704425165057,43.783679816663934,44666.66666666666
68.92718393626889,65.13987559338679,44.001391389752825,44700.0
68.73107558778291,65.06921555702044,43.630960228521204,44733.33333333334
68.65493656922229,64.69958632101489,43.727495863210144,44766.66666666666
68.91571815718157,65.3329810298103,44.1189701897019,44800.0
68.79066404758008,65.14175806187592,43.940852294428986,44833.33333333334
68.47883851527189,64.87056567593481,43.63355704697987,44866.66666666666
68.46644295302013,64.9705963252283,43.63593354604468,44900.0
68.7655600539811,65.27085020242914,44.00259109311741,44933.33333333333
68.71802968960864,65.31246963562754,43.97260458839406,44966.66666666667
68.89239247311828,65.26602150537634,44.232741935483865,45000.0
68.75306342780027,65.32218623481782,44.09209176788124,45033.33333333333
68.45528455284554,65.05344173441735,43.756612466124665,45066.66666666667
68.50910569105692,65.05268292682926,43.78111111111111,45100.0
68.47579945799457,65.0630081300813,43.680867208672076,45133.33333333334
68.65632653061225,65.07344217687076,44.010421768707495,45166.66666666666
68.55480272108844,65.15502040816327,43.76364625850341,45200.0
69.1420596205962,65.35092140921411,44.429430894308936,45233.33333333334
69.26942335648522,65.52818607656275,44.634496311850526,45266.66666666666
68.86288441429605,65.60087942729977,44.22015175483283,45300.0
68.78955465587046,65.41371120107962,43.95781376518219,45333.33333333334
68.5309485094851,65.1329810298103,43.62569105691058,45366.66666666666
68.60189883778034,64.84331860097124,43.69435805096306,45400.0
68.79365812569628,65.2204168138467,43.7198054506426,45433.33333333333
68.78528924272477,65.22973670624678,43.704806673369035,45466.66666666667
68.50409232280242,64.89646423309871,43.4635237627544,45500.0
68.08268719539211,64.39657177669473,43.01082742578644,45533.33333333333
68.51469939327082,64.70463320463321,43.64569773855488,45566.66666666667
68.24666500952854,64.63730770293037,43.332698097053054,45600.0
68.23326980970529,64.64686386610325,43.3636589609744,45633.33333333334
68.16786775222796,64.56909450984708,43.27277478270436,45666.66666666666
68.21791366310383,64.67567045046539,43.27334493330019,45700.0
68.4965890573646,64.55666031430387,43.67489711934157,45733.33333333334
68.8140350877193,65.32224021592442,43.917381916329276,45766.66666666666
68.72104417670683,65.26955823293173,43.919812583668005,45800.0
68.77246963562753,65.3255600539811,43.93927125506073,45833.33333333334
68.74785425101214,65.34153846153846,43.942860998650474,45866.66666666666
69.00279132791329,65.33070460704607,44.39880758807588,45900.0
68.88073170731707,65.44008130081299,44.108346883468826,45933.33333333333
68.83174731182795,65.3764247311828,44.00451612903226,45966.66666666667
68.82352150537635,65.42271505376344,43.93784946236559,46000.0
69.1279674796748,65.36726287262873,44.28032520325202,46033.33333333333
69.11669376693767,65.37845528455284,44.29891598915989,46066.66666666667
68.9055330634278,65.40329284750338,44.0157354925776,46100.0
69.07479674796747,65.40761517615177,44.36200542005421,46133.33333333334
68.70803278688524,65.24991803278688,43.93732240437159,46166.66666666666
68.92890710382514,65.13265027322404,44.316530054644815,46200.0
68.56517006802721,65.10770068027212,43.908244897959186,46233.33333333334
68.56410884353741,65.11398639455783,43.87621768707484,46266.66666666666
68.53131972789116,65.12160544217687,43.84827210884354,46300.0
68.51972789115646,65.09564625850341,43.80873469387755,46333.33333333334
68.83728997289973,65.37105691056911,44.1459078590786,46366.66666666666
68.84084010840108,65.38460704607046,44.07027100271003,46400.0
69.00136054421769,65.39442176870749,44.334530612244905,46433.33333333333
69.01542857142857,65.38497959183674,44.36892517006803,46466.66666666667
68.87956639566396,65.37742547425474,44.0130081300813,46500.0
69.05854251012146,65.18707152496629,44.203373819163296,46533.33333333333
68.74085365853661,65.02601076686443,43.704158426719395,46566.66666666667
68.55793088170137,64.8531236154187,43.480172795746576,46600.0
68.40631549917265,64.83521787093215,43.233177054605626,46633.33333333334
68.41061776061777,64.82959183673469,43.24031991174849,46666.66666666666
69.00963411993938,65.07293245291189,44.097802554665506,46700.0
68.80665138866154,65.16033720739892,43.881268074425705,46733.33333333334
68.91402874765645,65.1162676955683,43.972556585061,46766.66666666666
68.80455066295629,65.23489932885906,43.845201069460366,46800.0
69.0501575126695,65.24254211751816,44.14784276126557,46833.33333333334
68.9886779069133,65.1393572324985,44.08689365417144,46866.66666666666
68.84248566692932,65.23508953074477,43.80691791430046,46900.0
68.89721955896452,65.3013833721408,43.91102588686481,46933.33333333333
68.83076881104381,65.30163147269057,43.85605936596279,46966.66666666667
68.97295698924731,65.25244623655914,44.12927419354839,47000.0
68.85770580296897,65.44823211875844,43.98968960863698,47033.33333333333
68.80091397849462,65.37594086021504,43.87620967741936,47066.66666666667
68.92317204301075,65.26731182795699,44.14900537634409,47100.0
68.84744939271255,65.31724696356275,43.91646423751687,47133.33333333334
69.02155287817938,65.19729585006694,44.26032128514056,47166.66666666666
68.8638056680162,65.4118488529015,44.10364372469635,47200.0
68.90526315789475,65.40450742240215,44.087989203778676,47233.33333333334
68.89948717948718,65.40153846153846,44.09495276653171,47266.66666666666
68.85597840755736,65.39074224021593,44.03292847503374,47300.0
68.99244660762254,65.39572860980344,44.293624830447605,47333.33333333334
68.89772484511856,65.52251121555223,44.15837961973937,47366.66666666666
69.10936536450653,65.54406520631686,44.43223315548168,47400.0
69.0004021771188,65.55125077083947,44.21704158511408,47433.33333333333
69.01841382652238,65.52603241264201,44.220508264685286,47466.66666666667
69.16682306887952,65.46507762018392,44.47883207764699,47500.0
68.95569105691057,65.35661246612466,44.115420054200534,47533.33333333333
69.04894308943089,65.33696476964771,44.324905149051496,47566.66666666667
68.60631292517007,65.11896598639456,43.89172789115647,47600.0
68.92008196721312,65.15393442622951,44.228005464480866,47633.33333333334
68.9170218579235,65.15603825136613,44.24737704918033,47666.66666666666
68.64428961748634,65.18521857923497,43.92918032786885,47700.0
68.98234013605442,65.43757823129252,44.219727891156474,47733.33333333334
68.95771777890981,65.56832989248464,44.214306780706224,47766.66666666666
69.10393296391405,65.55967022570617,44.56050817678065,47800.0
68.94020890540031,65.58111236741506,44.223846443762454,47833.33333333334
68.94841974909815,65.583831368115,44.2474021428956,47866.66666666666
69.13855926476552,65.54501959724287,44.58264630355453,47900.0
68.90054200542005,65.41138211382113,44.058048780487795,47933.33333333333
69.14296055983054,65.49733222511193,44.56358420248278,47966.66666666667
68.81075880758807,65.41859078590785,44.09474254742548,48000.0
68.75778688524589,65.12991803278689,44.16286885245901,48033.33333333333
68.78349726775956,65.11584699453552,44.20346994535519,48066.66666666667
68.64726775956285,65.19330601092896,44.050327868852456,48100.0
68.86710382513661,65.1053825136612,44.317049180327864,48133.33333333334
68.61882513661203,65.18314207650272,43.95923497267759,48166.66666666666
68.6839344262295,65.19311475409836,43.9744262295082,48200.0
68.63478142076502,65.22234972677596,43.86734972677596,48233.33333333334
68.6126775956284,65.22710382513661,43.86032786885247,48266.66666666666
68.659478490483,64.93585652987127,43.919215535262396,48300.0
68.78523489932886,65.2707753587603,43.80190429421073,48333.33333333334
68.95657962666087,65.17370866505448,43.97796375295492,48366.66666666666
68.86042451028537,65.33922627816882,43.884842036339826,48400.0
69.07276149942707,65.2003328422546,44.08997653734927,48433.33333333333
68.81246404602109,64.90812217504451,43.81008081084783,48466.66666666667
68.95111111111112,65.48471544715447,43.99533875338753,48500.0
68.9080758807588,65.42831978319784,44.0309756097561,48533.33333333333
68.90718157181571,65.52344173441735,44.061490514905145,48566.66666666667
69.21483123264261,65.4114238410596,44.62315744499039,48600.0
68.9611382113821,65.44693766937671,44.12178861788618,48633.33333333334
69.00839209587902,65.53288468241414,44.17714561492881,48666.66666666666
69.04780545352173,65.5875003351476,44.22854385071185,48700.0
68.97820978423414,65.48598055970946,44.07493057039094,48733.33333333334
68.99836021505376,65.2461559139785,44.16,48766.66666666666
69.04977568895535,65.51586199530016,44.14534821619311,48800.0
69.06654560991241,65.46013138218329,44.46224097415081,48833.33333333334
69.0628070925016,65.4638698995941,44.464697714163634,48866.66666666666
68.97722174748985,65.51644947660756,44.17069002349926,48900.0
69.09664067506942,65.45236060670797,44.38592181157872,48933.33333333333
69.03906480413974,65.6005040619889,44.32584390165429,48966.66666666667
68.8994388148621,65.51057208968325,44.068778424958104,49000.0
68.892177983457,65.50307189020985,44.08957685044816,49033.33333333333
68.83128476821192,65.45128476821192,43.96545695364239,49066.66666666667
69.00704299379797,65.2560706401766,44.338563019026594,49100.0
68.80842194137358,65.30278884462153,44.03670087860478,49133.33333333334
68.8324238410596,65.37978807947019,44.16413245033112,49166.66666666666
68.77070198675496,65.39705960264901,44.099867549668865,49200.0
68.92437086092716,65.2778013245033,44.287337748344356,49233.33333333334
68.94550993377483,65.28029139072848,44.30773509933775,49266.66666666666
68.96317234695526,65.53432401873688,44.3060625639369,49300.0
68.71368707482993,64.98220408163266,44.10756462585034,49333.33333333334
68.5949387755102,65.06770068027211,43.900299319727885,49366.66666666666
68.63066666666667,65.03942857142857,43.86585034013605,49400.0
68.61554644808743,65.16863387978142,43.875081967213106,49433.33333333333
68.54179591836736,65.10247619047621,43.783809523809516,49466.66666666667
68.98531165311653,65.31143631436315,44.17043360433604,49500.0
68.93610884353741,65.43959183673469,44.11197278911565,49533.33333333333
69.03604676336869,65.02443710759904,44.20724182723533,49566.66666666667
68.75301467779778,65.20794456266711,43.82490314836035,49600.0
68.70366402988354,65.07253900241706,43.60489452867503,49633.33333333334
68.76042471042472,65.16047986762273,43.6934087148373,49666.66666666666
68.7918917444208,65.20303377530418,43.71762972663284,49700.0
68.94454256446485,65.09811700133143,43.92071298535445,49733.33333333334
68.88315546264715,65.30272857300035,43.879882275277815,49766.66666666666
68.95548554992467,65.14850020545131,44.171154636351176,49800.0
68.87609916449803,65.22640734146006,43.932639364470624,49833.33333333334
68.84596630598548,65.24903437885222,43.88418024928093,49866.66666666666
69.12544715447154,65.2260975609756,44.33769647696477,49900.0
68.95227642276423,65.3450406504065,44.05430894308943,49933.33333333333
68.95531165311652,65.34037940379403,44.09981029810298,49966.66666666667
68.544,65.05521088435374,43.72917006802722,50000.0
69.06682926829268,65.24975609756098,44.32506775067751,50033.33333333333
69.08303523035232,65.23953929539296,44.32766937669377,50066.66666666667
68.76704561019041,65.22931105328037,43.94266538830298,50100.0
68.94314556056771,65.24317856749917,44.22659258444273,50133.33333333334
68.8820325203252,65.42934959349593,44.09333333333333,50166.66666666666
68.95591204234191,65.17089540022917,44.16868554591585,50200.0
68.7866045747158,65.2435556773045,43.96312833858376,50233.33333333334
68.77496233392687,65.27204492535269,43.91453225585536,50266.66666666666
69.00057142857143,65.37575510204081,44.397904761904755,50300.0
68.851012145749,65.34901484480432,43.93433198380568,50333.33333333334
69.00728433458832,65.18011676761064,44.09204998090249,50366.66666666666
68.96287262872629,65.46528455284553,44.001300813008136,50400.0
68.83497510283611,65.21923035289025,43.71825611604243,50433.33333333333
68.82718120805369,65.22269430612687,43.70228945659233,50466.66666666667
68.93452091767881,65.43155195681511,43.95387314439946,50500.0
69.12388663967612,65.28035087719299,44.340755735492586,50533.33333333333
68.78599462365591,65.27879032258065,43.947204301075274,50566.66666666667
68.8024193548387,65.32516129032258,43.92572580645161,50600.0
68.8195411605938,65.4084750337382,43.96955465587045,50633.33333333334
68.8302024291498,65.40402159244265,43.973927125506066,50666.66666666666
69.04177279673968,65.51213234308389,44.38681395286485,50700.0
68.88058107242043,65.51879940183721,44.087000640888704,50733.33333333334
68.97523870315699,65.4010479002101,44.313625362376655,50766.66666666666
68.73293172690762,65.2974297188755,43.928701472556895,50800.0
69.2060517956173,65.55233403327411,44.55860657944329,50833.33333333334
69.14371129045232,65.48556184143497,44.4650239965681,50866.66666666666
68.8374628879892,65.41592442645074,43.98704453441296,50900.0
68.98487814033301,65.56192187039171,44.20462771804703,50933.33333333333
68.97171354264418,65.56967048288065,44.13698152666434,50966.66666666667
69.18843338606322,65.46644502238786,44.494275679009036,51000.0
68.88658536585365,65.43788617886179,44.088563685636856,51033.33333333333
68.87978319783197,65.43991869918699,44.09425474254743,51066.66666666667
68.85663956639566,65.4619783197832,44.13056910569106,51100.0
68.8239837398374,65.47346883468835,44.152357723577225,51133.33333333334
68.9459620596206,65.40094850948509,44.26344173441734,51166.66666666666
68.81619047619049,65.44775510204083,44.03227210884353,51200.0
68.98084353741497,65.37997278911566,44.257904761904754,51233.33333333334
68.99314363143631,65.39360433604337,44.2819783197832,51266.66666666666
68.83639564308505,65.3195896138189,43.939734844317314,51300.0
68.79090535543078,65.21717572935215,43.956279961649095,51333.33333333334
68.47640004400925,64.92708218725933,43.641132137748926,51366.66666666666
68.82929557483494,65.08591149669886,44.01113111802261,51400.0
68.75241747705795,65.22301054650049,43.91866867552391,51433.33333333333
68.47136648696227,64.9318956980966,43.689927384750796,51466.66666666667
69.06933296808657,65.10494452814683,44.32713326941515,51500.0
68.47813290791065,64.92994278798548,43.73861260864782,51533.33333333333
68.52271977115193,64.90835075365827,43.79304653977336,51566.66666666667
68.60855191256829,65.09606557377049,43.90035519125683,51600.0
69.07760544217686,65.38084353741498,44.37145578231293,51633.33333333334
69.03775067750678,65.30875338753387,44.290677506775076,51666.66666666666
68.84571943034867,65.2354722540514,43.85428602608175,51700.0
68.70590330091768,64.84415833447473,43.73025612929736,51733.33333333334
68.98522448979594,65.44157823129252,44.057931972789106,51766.66666666666
69.01221768707484,65.42361904761907,44.061469387755096,51800.0
68.72771349862259,65.32170798898072,43.89914600550964,51833.33333333334
68.72415977961433,65.31944903581268,43.91608815426997,51866.66666666666
69.17224043715846,65.44112021857923,44.31319672131146,51900.0
68.93989115646261,65.45643537414966,44.07170068027211,51933.33333333333
68.95602721088436,65.32710204081633,44.22699319727892,51966.66666666667
68.63994513031551,65.19355281207132,43.80858710562414,52000.0
68.71086419753087,65.19550068587105,43.88609053497942,52033.33333333333
68.28409784236507,64.6338121914693,43.35900493649121,52066.66666666667
68.57823072886457,64.99861905156462,43.676167591902114,52100.0
68.70846994535519,65.04841530054645,44.092650273224045,52133.33333333334
68.50434591264165,64.94347562988227,43.6981791176147,52166.66666666666
68.75429090108923,64.83796347232919,43.91657498074596,52200.0
68.18756041649405,64.58171071892176,43.350678045681775,52233.33333333334
68.19435468279615,64.57281741099787,43.301074377882735,52266.66666666666
68.34625901068854,64.50247189769935,43.62656392410307,52300.0
68.54497194410828,64.96946858840357,43.76532071735065,52333.33333333334
68.68228077896359,64.9118164814611,43.940339971393996,52366.66666666666
68.54645725602377,64.98250632632853,43.6892947518979,52400.0
69.02184604515936,65.02274271119202,44.06985843545363,52433.33333333333
69.06727712414747,65.01097736597559,44.09942124283347,52466.66666666667
68.63563541892184,65.19839250920114,43.60705780471964,52500.0
68.89181571815718,65.40875338753388,44.08384823848238,52533.33333333333
68.76848238482386,65.45479674796748,43.914471544715454,52566.66666666667
68.9557354925776,65.25047233468287,44.13727395411606,52600.0
68.84929539295393,65.46289972899729,44.031056910569106,52633.33333333334
68.84317073170733,65.44994579945799,44.00804878048781,52666.66666666666
68.95268556005398,65.27678812415655,44.18742240215924,52700.0
68.66587431693989,65.22016393442622,43.89434426229509,52733.33333333334
68.7324238089999,64.98291891297173,43.95472549235341,52766.66666666666
68.54345912641655,65.02783584552756,43.718725932445814,52800.0
68.69856419848169,64.9551380789966,43.848003080646926,52833.33333333334
68.67523930025305,64.97043129057103,43.8828253933326,52866.66666666666
68.29469188529589,64.70841422153197,43.41666204448389,52900.0
69.13155195681512,65.33230769230771,44.253711201079625,52933.33333333333
68.98584699453552,65.48120218579236,44.08346994535517,52966.66666666667
69.07330612244898,65.33730612244898,44.30247619047619,53000.0
68.71388203017833,65.20041152263374,43.986941015089165,53033.33333333333
68.72524005486969,65.20189300411522,43.9681755829904,53066.66666666667
68.7203840877915,65.22614540466392,43.91322359396433,53100.0
68.88361904761905,65.49080272108844,44.04634013605442,53133.33333333334
68.94057947290882,65.12577072079446,44.000982157472585,53166.66666666666
68.70690784089051,65.22979756643204,43.81142576526437,53200.0
68.96189563073553,65.221175181482,44.14915764963704,53233.33333333334
68.93211888782359,65.24043281742227,44.15822490069853,53266.66666666666
68.8298315299274,65.29938364607588,43.89982194219971,53300.0
68.9301465552664,65.26363511847694,44.079386385426645,53333.33333333334
68.44015888234489,64.97627722229832,43.58496096425147,53366.66666666666
68.72403454725493,64.97260424689185,44.006546374738704,53400.0
68.44788385152721,64.97523626900426,43.54088481029997,53433.33333333333
68.44410354745925,64.97627722229832,43.527544172031234,53466.66666666667
68.52077797561978,64.98802903711821,43.55028078345433,53500.0
68.80026736508975,65.319228460741,43.76815627216675,53533.33333333333
68.69793179016574,64.95696479934257,43.72748938501576,53566.66666666667
68.63059742545934,65.09739795357025,43.615304213884926,53600.0
69.06075573549258,65.34777327935223,44.12075573549258,53633.33333333334
69.07268556005398,65.33832658569501,44.128097165991896,53666.66666666666
68.63573342171404,65.16344905681223,43.686800894854585,53700.0
68.71517146776407,65.29163237311386,43.9523731138546,53733.33333333334
68.86222222222223,65.41940379403795,43.96552845528457,53766.66666666666
69.01924119241193,65.40170731707317,44.26154471544715,53800.0
68.90964769647697,65.44926829268293,44.05273712737127,53833.33333333334
68.88116531165312,65.46417344173442,44.052113821138214,53866.66666666666
69.3609809939159,65.51219512195122,44.55120335971571,53900.0
68.96682860998649,65.48353576248313,44.05632928475035,53933.33333333333
69.10864144569268,65.67396841569027,44.227364131163355,53966.66666666667
68.97913638076778,65.70737091476876,44.178915630215904,54000.0
69.17977317210499,65.62683325736654,44.477732793522264,54033.33333333333
69.190524707081,65.6224093090597,44.48103064589645,54066.66666666667
69.03110169718744,65.7330616403464,44.25439043354693,54100.0
68.91413978494624,65.4694623655914,44.03129032258065,54133.33333333334
68.91368563685637,65.55135501355014,44.10184281842818,54166.66666666666
69.19568728799871,65.63842674850589,44.474182953750066,54200.0
69.08541969525656,65.69092230657405,44.27114628762183,54233.33333333334
69.06740968071932,65.70419426048565,44.227373068432684,54266.66666666666
69.06372153125504,65.65675981263125,44.255209174608304,54300.0
68.6551836734694,65.19265306122449,43.764897959183685,54333.33333333334
68.93669398907103,65.12226775956286,44.223551912568304,54366.66666666666
68.60274829931973,65.14995918367347,43.85931972789116,54400.0
68.42415300546448,64.65579234972678,43.793360655737715,54433.33333333333
68.43508196721311,64.6606557377049,43.76346994535517,54466.66666666667
68.38792866941014,64.84847736625514,43.62883401920439,54500.0
68.90918032786885,65.1649180327869,44.18071038251366,54533.33333333333
68.66434701287271,65.06670150731654,43.734514247992074,54566.66666666667
68.90898674087413,65.34809297757407,43.85635946963498,54600.0
68.90800458340154,65.3927265782725,43.79775740710427,54633.33333333334
68.92164565940962,65.38402357177935,43.79691166039177,54666.66666666666
69.02543270929,65.21889519876098,44.009510094285794,54700.0
68.83949447932453,65.29389478242044,43.77435592119506,54733.33333333334
68.86509525871399,65.30009201125785,43.70610521757956,54766.66666666666
68.81660937414743,65.35262181480876,43.74933158727561,54800.0
69.16022807879085,65.20936323457194,44.2206034812026,54833.33333333334
69.2275578687851,65.30083550198603,44.3319819202849,54866.66666666666
68.93551568278319,65.34839063142036,43.990713600876596,54900.0
68.94351458704287,65.36852485960827,43.975263662511985,54933.33333333333
68.69875990830502,65.18971469605326,43.78780346341868,54966.66666666667
69.21501642168741,65.61185591988371,44.47278307220158,55000.0
69.05876810423733,65.70704786518064,44.27922252732461,55033.33333333333
69.06151402573629,65.70812469714103,44.26274699833091,55066.66666666667
69.2034673989124,65.63078124158724,44.555995261939366,55100.0
69.1428030814975,65.76137315853494,44.40621705635897,55133.33333333334
69.23639971043247,65.64822908008686,44.487814033300246,55166.66666666666
69.07807031712701,65.69732945673827,44.32525709363054,55200.0
69.15116962187567,65.58128604998932,44.44619205298014,55233.33333333334
69.15266502883999,65.57065797906431,44.48523285622729,55266.66666666666
69.01223029267251,65.64732428968169,44.21258812219611,55300.0
69.25883667118806,65.49575786590069,44.52277986116653,55333.33333333334
68.84298664640104,65.4708229291065,44.174709586364145,55366.66666666666
68.80667137118662,65.50398979481054,44.189773097383565,55400.0
68.80140592769514,65.49473455650852,44.147052437303216,55433.33333333333
68.81492237542071,65.48300944522853,44.16390728476821,55466.66666666667
68.78322697766531,65.0327593794697,44.018896468258326,55500.0
68.69273897312675,65.21178225205071,43.931587814511005,55533.33333333333
68.78266117969822,65.40134430727024,44.11388203017832,55566.66666666667
68.76153635116599,65.38235939643347,44.01561042524006,55600.0
69.02526367427029,65.50208486632327,44.381080860109556,55633.33333333334
69.02817976180742,65.49311857847546,44.392527185021656,55666.66666666666
68.6750352141851,65.20667274283979,43.837103322561944,55700.0
68.69254043349103,65.07129497194411,43.813730883485526,55733.33333333334
68.68370757035933,65.2017841853785,43.72651697185627,55766.66666666666
69.27867415422547,65.28286536090947,44.31864128201617,55800.0
68.74413787389179,65.11975584831663,43.73836550943189,55833.33333333334
68.70033418952137,65.1429557820311,43.71270748750242,55866.66666666666
68.1611570247934,64.42581660763479,43.067802327542594,55900.0
68.8909738392001,65.33639227503082,43.87716751129983,55933.33333333333
68.79407296931532,65.01400281713481,43.99596763056868,55966.66666666667
68.62603305785123,64.9885246817065,43.67827228054501,56000.0
68.8465250429863,65.0960951799878,44.10621776027511,56033.33333333333
68.79639296268678,65.01817328140967,44.06600933521143,56066.66666666667
68.65965144861491,65.10636064849339,43.74181788052034,56100.0
68.60001100231048,65.04942787985479,43.71471008911872,56133.33333333334
68.93515646258504,65.53442176870749,44.08356462585034,56166.66666666666
68.74463501532853,65.07291407738835,43.98019719943658,56200.0
68.62148203386086,65.16024525644212,43.681415195956575,56233.33333333334
68.60949540144172,65.16281382053194,43.68177424254978,56266.66666666666
69.2534149659864,65.42522448979592,44.574938775510205,56300.0
69.05103825136612,65.63352459016393,44.19754098360656,56333.33333333334
68.98588394062078,65.48304993252361,44.07087719298247,56366.66666666666
68.934008097166,65.46634278002699,44.087719298245624,56400.0
68.8372311827957,65.40682795698925,44.074032258064506,56433.33333333332
68.8475,65.41311827956989,44.035,56466.66666666668
68.87789473684211,65.47624831309042,44.024183535762475,56500.0
68.989891598916,65.38726287262871,44.23062330623306,56533.33333333332
68.870054200542,65.44696476964768,44.03723577235773,56566.66666666668
68.93508771929825,65.31031039136303,44.2267746288799,56600.0
68.91161998989334,65.4846671454028,44.122583047421465,56633.33333333334
68.81212851405623,65.30838018741632,43.90602409638553,56666.66666666666
68.85271505376346,65.39642473118279,44.00787634408603,56700.0
68.8027576974565,65.37437751004016,43.814832663989286,56733.33333333334
69.27467421491134,65.48595385601367,44.552179021576585,56766.66666666666
68.9531884212775,65.6108737449263,44.363330484939105,56800.0
69.08505127109592,65.50678273873105,44.473189489425344,56833.33333333334
69.08027130954925,65.5119365520188,44.4899594103824,56866.66666666666
68.79630522088353,65.35036144578314,44.0512985274431,56900.0
69.09875026703696,65.52614291817987,44.425523392437505,56933.33333333332
68.89457994579946,65.49284552845529,44.114579945799456,56966.66666666668
68.93268292682927,65.49455284552846,44.08731707317073,57000.0
68.62013605442178,65.2003537414966,43.79507482993198,57033.33333333332
68.60019047619048,65.21322448979592,43.788108843537415,57066.66666666668
69.06737127371274,65.42257452574526,44.33956639566396,57100.0
68.95444444444446,65.49831978319783,44.20742547425474,57133.33333333334
69.03905913978494,65.36755376344087,44.29266129032258,57166.66666666666
68.9369623655914,65.43599462365592,44.126370967741934,57200.0
69.18618279569893,65.36806451612904,44.498279569892475,57233.33333333334
69.21932795698925,65.35809139784946,44.54295698924732,57266.66666666666
68.9047311827957,65.40370967741936,44.10634408602151,57300.0
68.91872628726287,65.44644986449865,44.15070460704607,57333.33333333334
68.92210364176478,65.47180657938168,44.008251732863904,57366.66666666666
68.79384420728354,64.99804708988889,43.89745846627793,57400.0
68.6216305424139,65.11612938717131,43.684508746836826,57433.33333333332
68.58551545824623,65.14454285399935,43.66712509627022,57466.66666666668
68.78718780943997,65.00181538123006,43.91423698976784,57500.0
68.68704946557295,65.18430137818655,43.73049410335018,57533.33333333332
68.89229080932785,65.28674897119342,44.13947873799726,57566.66666666668
68.58832653061225,65.2098775510204,43.819428571428574,57600.0
68.70174863387979,65.27363387978141,43.888661202185794,57633.33333333334
68.68418032786886,65.27885245901639,43.90644808743169,57666.66666666666
68.89490514905151,65.52355013550135,43.97311653116533,57700.0
69.26982716847036,65.56463683842136,44.65398697033328,57733.33333333334
69.02543586971214,65.77148263278822,44.32926071090689,57766.66666666666
69.03338179077156,65.69461045603833,44.21197437139934,57800.0
69.05468306527911,65.77532098932288,44.2486822543587,57833.33333333334
69.06087309095824,65.76810379781054,44.249898634950675,57866.66666666666
69.21111290583104,65.57179777095784,44.46115328702956,57900.0
68.98923168039627,65.69765250632639,44.320599795401925,57933.33333333332
69.09541230506302,65.5986434522538,44.45153279213844,57966.66666666668
69.02121358961934,65.70521725084801,44.308000861465565,58000.0
69.1256141850032,65.57386242255929,44.47332300790429,58033.33333333332
69.10718863490708,65.59813608203375,44.44293420209358,58066.66666666668
69.04177279673968,65.73335657023352,44.32474461752956,58100.0
