Time[ms],HR[bpm]
833,146.7391
867,146.7391
900,146.9388
933,138.4615
967,139.1753
1000,110.7692
1033,99.44752
1067,98.50746
1100,99.0
1133,99.0
1167,99.0
1200,100.0
1233,100.0
1267,90.0
1300,90.0
1333,90.0
1367,90.0
1400,90.0
1433,90.0
1467,88.88889
1500,88.88889
1533,88.88889
1567,67.08074
1600,73.09644
1633,73.09644
1667,88.88889
1700,72.0
1733,81.0
1767,72.0
1800,72.0
1833,72.0
1867,67.02128
1900,67.37968000000001
1933,77.00535
1967,77.41936
2000,77.41936
2033,77.41936
2067,77.41936
2100,87.09676999999998
2133,77.41936
2167,77.41936
2200,87.09676999999998
2233,87.09676999999998
2267,87.09676999999998
2300,84.70588000000002
2333,85.26316
2367,85.26316
2400,85.26316
2433,85.26316
2467,85.26316
2500,85.26316
2533,85.26316
2567,85.26316
2600,85.26316
2633,85.26316
2667,85.26316
2700,90.0
2733,90.0
2767,90.45226
2800,90.90909
2833,89.50276
2867,89.01099
2900,89.50276
2933,89.50276
2967,89.50276
3000,99.44752
3033,99.44752
3067,102.0619
3100,102.0619
3133,102.0619
3167,102.0619
3200,102.0619
3233,102.0619
3267,102.0619
3300,102.0619
3333,102.0619
3367,102.0619
3400,102.0619
3433,99.44752
3467,99.44752
3500,102.0619
3533,102.0619
3567,102.0619
3600,102.0619
3633,102.0619
3667,102.0619
3700,102.0619
3733,102.0619
3767,102.0619
3800,102.0619
3833,102.0619
3867,100.0
3900,100.0
3933,100.0
3967,102.0619
4000,102.0619
4033,102.0619
4067,102.0619
4100,102.0619
4133,102.0619
4167,102.0619
4200,111.3402
4233,111.3402
4267,111.3402
4300,111.3402
4333,110.0
4367,110.0
4400,110.0
4433,110.0
4467,110.0
4500,110.0
4533,110.0
4567,110.0
4600,110.0
4633,108.0
4667,108.0
4700,117.0
4733,117.0
4767,117.0
4800,122.7273
4833,122.7273
4867,122.7273
4900,122.7273
4933,122.7273
4967,122.7273
5000,122.7273
5033,122.7273
5067,122.7273
5100,122.7273
5133,122.7273
5167,124.4681
5200,124.4681
5233,124.4681
5267,124.4681
5300,124.4681
5333,124.4681
5367,124.4681
5400,124.4681
5433,124.4681
5467,124.4681
5500,124.4681
5533,124.4681
5567,124.4681
5600,125.5814
5633,125.8064
5667,125.8064
5700,125.8064
5733,125.8064
5767,125.8064
5800,125.8064
5833,125.8064
5867,125.8064
5900,125.8064
5933,125.8064
5967,125.8064
6000,125.8064
6033,125.8064
6067,126.0
6100,126.0
6133,127.8689
6167,127.8689
6200,127.8689
6233,127.8689
6267,127.8689
6300,127.8689
6333,127.8689
6367,127.8689
6400,127.8689
6433,127.8689
6467,127.8689
6500,128.5714
6533,126.6332
6567,126.6332
6600,126.6332
6633,126.6332
6667,126.6332
6700,126.6332
6733,126.4865
6767,126.4865
6800,126.4865
6833,126.4865
6867,126.4865
6900,126.4865
6933,126.4865
6967,126.4865
7000,126.4865
7033,126.4865
7067,126.4865
7100,126.4865
7133,124.1379
7167,126.4865
7200,123.8095
7233,123.8095
7267,105.3191
7300,105.3191
7333,105.8824
7367,105.8824
7400,105.8824
7433,108.5427
7467,108.5427
7500,117.5879
7533,117.5879
7567,117.5879
7600,117.5879
7633,115.508
7667,115.508
7700,115.508
7733,115.508
7767,115.508
7800,115.508
7833,117.5879
7867,117.5879
7900,117.5879
7933,117.5879
7967,126.6332
8000,126.6332
8033,126.4865
8067,126.4865
8100,126.4865
8133,126.4865
8167,126.4865
8200,126.4865
8233,126.4865
8267,126.4865
8300,126.6332
8333,126.6332
8367,126.6332
8400,126.6332
8433,126.6332
8467,126.6332
8500,126.4865
8533,126.4865
8567,126.4865
8600,126.4865
8633,126.4865
8667,126.4865
8700,126.4865
8733,127.2727
8767,127.2727
8800,127.2727
8833,127.2727
8867,127.2727
8900,127.2727
8933,127.2727
8967,127.1739
9000,127.1739
9033,127.1739
9067,127.1739
9100,127.1739
9133,127.1739
9167,127.1739
9200,127.1739
9233,127.1739
9267,127.1739
9300,127.1739
9333,127.1739
9367,127.1739
9400,123.5294
9433,123.1579
9467,123.1579
9500,123.1579
9533,123.1579
9567,123.1579
9600,123.1579
9633,123.1579
9667,123.1579
9700,123.1579
9733,123.1579
9767,123.1579
9800,124.7525
9833,124.7525
9867,124.7525
9900,123.8095
9933,123.8095
9967,123.8095
10000,123.8095
10033,123.8095
10067,123.8095
10100,123.8095
10133,123.8095
10167,123.8095
10200,123.8095
10233,124.7525
10267,124.7525
10300,124.7525
10333,124.4681
10367,124.4681
10400,124.4681
10433,124.4681
10467,124.4681
10500,124.4681
10533,124.4681
10567,124.4681
10600,124.4681
10633,124.4681
10667,124.4681
10700,124.7525
10733,124.7525
10767,124.7525
10800,127.8689
10833,127.8689
10867,127.8689
10900,127.8689
10933,127.8689
10967,127.8689
11000,127.8689
11033,127.8689
11067,129.8969
11100,129.8969
11133,129.8969
11167,129.8969
11200,129.8969
11233,129.8969
11267,129.8969
11300,129.8969
11333,129.8969
11367,129.8969
11400,129.8969
11433,129.2818
11467,129.2818
11500,129.8969
11533,129.8969
11567,129.2818
11600,127.9188
11633,127.9188
11667,127.9188
11700,128.5714
11733,128.5714
11767,128.5714
11800,128.5714
11833,128.5714
11867,128.5714
11900,128.5714
11933,128.5714
11967,128.5714
12000,128.5714
12033,128.5714
12067,127.9188
12100,127.9188
12133,127.9188
12167,127.9188
12200,127.9188
12233,127.9188
12267,127.9188
12300,127.9188
12333,127.8689
12367,127.8689
12400,127.8689
12433,127.8689
12467,127.8689
12500,127.8689
12533,127.8689
12567,127.2727
12600,127.2727
12633,127.2727
12667,127.2727
12700,127.2727
12733,127.2727
12767,127.2727
12800,129.2818
12833,129.2818
12867,129.2818
12900,129.2818
12933,129.2818
12967,129.2818
13000,129.2818
13033,129.2818
13067,129.2818
13100,129.2818
13133,129.2818
13167,129.2818
13200,129.2818
13233,129.2818
13267,129.2818
13300,129.2818
13333,129.2818
13367,124.4681
13400,124.4681
13433,124.4681
13467,124.4681
13500,124.4681
13533,124.4681
13567,124.4681
13600,124.4681
13633,124.4681
13667,124.4681
13700,124.4681
13733,124.4681
13767,124.1379
13800,124.1379
13833,123.1579
13867,123.1579
13900,123.1579
13933,123.1579
13967,123.1579
14000,123.1579
14033,123.1579
14067,123.1579
14100,122.5131
14133,122.5131
14167,121.875
14200,121.875
14233,121.875
14267,120.0
14300,120.0
14333,121.2435
14367,121.2435
14400,121.2435
14433,121.2435
14467,121.2435
14500,121.2435
14533,121.2435
14567,121.2435
14600,121.2435
14633,121.2435
14667,120.0
14700,121.2435
14733,121.2435
14767,121.2435
14800,121.2435
14833,121.2435
14867,121.2435
14900,121.2435
14933,121.2435
14967,121.2435
15000,121.2435
15033,121.2435
15067,121.2435
15100,121.875
15133,121.875
15167,121.875
15200,121.875
15233,121.875
15267,121.875
15300,121.875
15333,121.875
15367,121.875
15400,121.875
15433,121.875
15467,121.875
15500,132.3529
15533,137.7049
15567,137.7049
15600,137.7049
15633,137.7049
15667,137.7049
15700,137.7049
15733,137.7049
15767,137.7049
15800,137.7049
15833,137.7049
15867,137.7049
15900,137.7049
15933,137.7049
15967,137.7049
16000,139.1753
16033,139.1753
16067,139.1753
16100,139.1753
16133,139.1753
16167,139.1753
16200,139.1753
16233,139.2265
16267,139.2265
16300,139.1753
16333,139.1753
16367,139.1753
16400,139.1753
16433,139.1753
16467,139.1753
16500,139.1753
16533,139.1753
16567,139.1753
16600,139.1753
16633,139.1753
16667,139.8964
16700,139.8964
16733,139.8964
16767,139.8964
16800,139.8964
16833,139.8964
16867,139.8964
16900,139.8964
16933,139.8964
16967,139.8964
17000,139.8964
17033,139.8964
17067,139.2265
17100,139.1753
17133,139.1753
17167,139.1753
17200,139.1753
17233,139.1753
17267,139.1753
17300,139.1753
17333,139.1753
17367,139.1753
17400,139.1753
17433,139.1753
17467,139.1753
17500,139.1753
17533,139.1753
17567,139.1753
17600,139.1753
17633,139.1753
17667,139.1753
17700,139.1753
17733,139.1753
17767,139.1753
17800,139.1753
17833,144.8276
17867,145.1613
17900,145.1613
17933,145.1613
17967,145.1613
18000,145.1613
18033,145.1613
18067,145.1613
18100,145.1613
18133,145.1613
18167,145.1613
18200,145.1613
18233,145.1613
18267,145.1613
18300,145.1613
18333,144.0
18367,144.0
18400,144.0
18433,144.0
18467,144.0
18500,144.385
18533,144.385
18567,144.385
18600,144.385
18633,146.9388
18667,146.9388
18700,146.9388
18733,146.9388
18767,146.9388
18800,146.9388
18833,146.9388
18867,146.9388
18900,146.9388
18933,148.3517
18967,148.3517
19000,148.3517
19033,148.3517
19067,148.4536
19100,148.4536
19133,148.4536
19167,148.4536
19200,148.4536
19233,148.4536
19267,148.4536
19300,148.4536
19333,148.4536
19367,148.4536
19400,147.541
19433,147.6923
19467,147.6923
19500,147.6923
19533,147.6923
19567,147.6923
19600,147.6923
19633,147.6923
19667,147.6923
19700,147.6923
19733,147.6923
19767,150.838
19800,150.838
19833,150.7853
19867,150.7853
19900,150.7853
19933,150.7853
19967,150.7853
20000,150.7853
20033,150.7853
20067,150.7853
20100,150.7853
20133,150.7853
20167,150.7853
20200,150.7853
20233,150.7389
20267,150.7389
20300,150.0
20333,150.0
20367,150.0
20400,150.0
20433,150.0
20467,150.0
20500,150.0
20533,150.0
20567,150.0
20600,150.0
20633,150.0
20667,150.7853
20700,150.7853
20733,150.7853
20767,150.7853
20800,150.7853
20833,150.7853
20867,150.7853
20900,150.7853
20933,150.7853
20967,150.7853
21000,150.7853
21033,151.4852
21067,151.4852
21100,152.381
21133,152.381
21167,152.381
21200,152.381
21233,152.381
21267,142.8571
21300,142.8571
21333,142.8571
21367,142.8571
21400,139.8964
21433,139.8964
21467,139.8964
21500,139.8964
21533,139.2265
21567,139.2265
21600,139.2265
21633,139.2265
21667,139.2265
21700,139.2265
21733,139.2265
21767,139.2265
21800,139.2265
21833,129.2818
21867,129.2818
21900,123.5294
21933,121.875
21967,121.875
22000,121.875
22033,112.5
22067,112.5
22100,112.5
22133,112.5
22167,112.5
22200,112.5
22233,113.089
22267,113.089
22300,113.089
22333,110.0
22367,110.0
22400,109.3923
22433,109.3923
22467,109.3923
22500,109.3923
22533,109.3923
22567,109.3923
22600,109.3923
22633,109.3923
22667,109.3923
22700,103.125
22733,103.125
22767,103.125
22800,103.125
22833,103.125
22867,103.125
22900,103.125
22933,103.125
22967,103.125
23000,103.125
23033,103.125
23067,103.125
23100,103.125
23133,99.44752
23167,99.44752
23200,99.44752
23233,99.44752
23267,99.44752
23300,99.44752
23333,99.44752
23367,99.44752
23400,99.44752
23433,99.44752
23467,99.44752
23500,96.42857
23533,96.42857
23567,96.42857
23600,96.42857
23633,96.42857
23667,96.42857
23700,90.90909
23733,96.42857
23767,90.0
23800,90.0
23833,90.0
23867,90.0
23900,90.0
23933,85.71429
23967,85.71429
24000,85.71429
24033,85.71429
24067,85.71429
24100,85.71429
24133,90.0
24167,90.0
24200,90.0
24233,90.0
24267,90.0
24300,86.17021
24333,86.17021
24367,86.17021
24400,86.17021
24433,86.17021
24467,86.17021
24500,86.17021
24533,86.17021
24567,86.17021
24600,86.17021
24633,86.17021
24667,86.17021
24700,83.23699
24733,83.23699
24767,76.36364
24800,76.36364
24833,76.36364
24867,76.36364
24900,76.36364
24933,76.36364
24967,75.78947
25000,75.78947
25033,75.78947
25067,75.78947
25100,75.78947
25133,75.0
25167,75.0
25200,75.78947
25233,75.78947
25267,75.78947
25300,75.78947
25333,75.78947
25367,75.78947
25400,75.78947
25433,75.78947
25467,75.90361999999998
25500,75.90361999999998
25533,75.90361999999998
25567,75.0
25600,75.0
25633,75.0
25667,75.0
25700,75.0
25733,75.0
25767,75.0
25800,75.0
25833,75.0
25867,74.6114
25900,75.0
25933,73.84615
25967,75.0
26000,73.09644
26033,73.09644
26067,73.09644
26100,73.09644
26133,73.09644
26167,73.09644
26200,73.09644
26233,73.09644
26267,72.83237
26300,72.83237
26333,72.83237
26367,72.83237
26400,72.83237
26433,72.83237
26467,72.83237
26500,72.83237
26533,72.83237
26567,72.83237
26600,72.83237
26633,72.83237
26667,72.83237
26700,72.83237
26733,72.83237
26767,72.83237
26800,72.83237
26833,72.83237
26867,72.83237
26900,72.83237
26933,72.83237
26967,72.83237
27000,72.83237
27033,72.83237
27067,73.46939
27100,73.46939
27133,73.46939
27167,73.46939
27200,73.46939
27233,73.46939
27267,73.46939
27300,67.74194
27333,67.74194
27367,67.74194
27400,67.74194
27433,67.74194
27467,67.74194
27500,67.74194
27533,67.74194
27567,67.74194
27600,67.74194
27633,67.74194
27667,67.74194
27700,67.74194
27733,67.74194
27767,67.74194
27800,67.74194
27833,67.74194
27867,67.74194
27900,71.64179
27933,71.18644
27967,81.35593
28000,81.35593
28033,81.35593
28067,81.35593
28100,81.35593
28133,81.35593
28167,81.35593
28200,81.35593
28233,81.35593
28267,81.35593
28300,81.35593
28333,81.35593
28367,81.35593
28400,83.07692
28433,83.07692
28467,83.07692
28500,83.07692
28533,83.07692
28567,83.07692
28600,83.07692
28633,83.07692
28667,83.07692
28700,83.07692
28733,84.21053
28767,84.21053
28800,84.21053
28833,84.21053
28867,84.21053
28900,84.21053
28933,84.21053
28967,84.21053
29000,84.21053
29033,85.26316
29067,85.26316
29100,85.26316
29133,85.26316
29167,85.26316
29200,85.26316
29233,85.26316
29267,85.26316
29300,85.26316
29333,85.26316
29367,85.26316
29400,85.26316
29433,85.26316
29467,85.26316
29500,85.26316
29533,91.13924
29567,91.13924
29600,91.13924
29633,91.13924
29667,91.13924
29700,91.13924
29733,91.13924
29767,91.13924
29800,89.50276
29833,89.50276
29867,89.50276
29900,89.50276
29933,89.50276
29967,89.50276
30000,89.50276
30033,89.50276
30067,89.50276
30100,89.50276
30133,89.50276
30167,89.50276
30200,89.50276
30233,89.50276
30267,89.50276
30300,89.50276
30333,89.50276
30367,89.50276
30400,89.50276
30433,89.50276
30467,89.55224
30500,89.55224
30533,89.55224
30567,89.55224
30600,85.26316
30633,85.26316
30667,85.26316
30700,85.26316
30733,85.26316
30767,85.26316
30800,85.26316
30833,85.26316
30867,85.26316
30900,85.26316
30933,85.26316
30967,88.34356
31000,88.34356
31033,88.34356
31067,88.34356
31100,88.34356
31133,88.34356
31167,88.34356
31200,88.34356
31233,88.34356
31267,86.63101999999998
31300,86.63101999999998
31333,86.63101999999998
31367,86.63101999999998
31400,86.63101999999998
31433,86.63101999999998
31467,86.63101999999998
31500,86.63101999999998
31533,86.63101999999998
31567,86.63101999999998
31600,86.63101999999998
31633,86.63101999999998
31667,86.63101999999998
31700,86.63101999999998
31733,86.63101999999998
31767,86.63101999999998
31800,86.63101999999998
31833,86.63101999999998
31867,91.13924
31900,91.13924
31933,79.74683
31967,80.44693000000002
32000,80.44693000000002
32033,90.50279
32067,90.50279
32100,90.50279
32133,90.50279
32167,90.50279
32200,90.50279
32233,90.50279
32267,90.50279
32300,90.50279
32333,90.50279
32367,90.50279
32400,90.50279
32433,90.50279
32467,90.50279
32500,90.50279
32533,90.50279
32567,90.50279
32600,90.50279
32633,90.50279
32667,90.50279
32700,90.50279
32733,80.44693000000002
32767,80.44693000000002
32800,79.41176999999998
32833,80.0
32867,80.0
32900,80.0
32933,80.0
32967,80.0
33000,80.0
33033,90.0
33067,90.0
33100,90.0
33133,90.0
33167,90.0
33200,90.0
33233,90.0
33267,90.0
33300,90.0
33333,90.0
33367,90.0
33400,90.0
33433,90.0
33467,90.0
33500,90.0
33533,90.0
33567,90.0
33600,88.23529
33633,87.27273000000002
33667,87.27273000000002
33700,84.375
33733,84.375
33767,84.375
33800,84.375
33833,84.375
33867,84.375
33900,84.375
33933,84.375
33967,84.375
34000,84.375
34033,84.375
34067,84.375
34100,84.375
34133,80.89888
34167,80.89888
34200,80.89888
34233,80.89888
34267,80.89888
34300,80.89888
34333,80.89888
34367,80.89888
34400,80.89888
34433,80.89888
34467,80.89888
34500,80.19802
34533,80.19802
34567,80.19802
34600,78.68852
34633,78.68852
34667,78.68852
34700,78.68852
34733,78.68852
34767,78.68852
34800,78.68852
34833,78.68852
34867,78.68852
34900,78.68852
34933,78.68852
34967,78.68852
35000,78.68852
35033,78.68852
35067,78.68852
35100,78.68852
35133,78.68852
35167,78.68852
35200,78.68852
35233,76.82927
35267,76.82927
35300,76.82927
35333,76.82927
35367,76.82927
35400,75.39267
35433,75.39267
35467,75.39267
35500,75.39267
35533,75.39267
35567,75.39267
35600,75.39267
35633,75.39267
35667,75.39267
35700,75.39267
35733,75.39267
35767,75.39267
35800,75.39267
35833,75.39267
35867,75.0
35900,75.0
35933,75.0
35967,75.0
36000,75.0
36033,75.0
36067,75.0
36100,75.0
36133,75.0
36167,75.0
36200,75.0
36233,74.6114
36267,74.6114
36300,74.6114
36333,74.6114
36367,74.6114
36400,74.6114
36433,74.6114
36467,74.6114
36500,74.6114
36533,74.6114
36567,74.6114
36600,74.6114
36633,72.83237
36667,72.83237
36700,72.83237
36733,72.83237
36767,72.83237
36800,72.83237
36833,72.83237
36867,72.83237
36900,72.83237
36933,72.83237
36967,73.84615
37000,73.84615
37033,73.84615
37067,73.84615
37100,73.84615
37133,73.84615
37167,73.84615
37200,73.84615
37233,73.84615
37267,73.84615
37300,73.68421
37333,73.68421
37367,73.68421
37400,73.68421
37433,73.68421
37467,73.68421
37500,73.68421
37533,73.68421
37567,73.68421
37600,73.68421
37633,73.68421
37667,73.68421
37700,74.6114
37733,74.6114
37767,74.6114
37800,74.6114
37833,74.6114
37867,74.6114
37900,74.6114
37933,74.6114
37967,74.6114
38000,74.6114
38033,74.6114
38067,74.6114
38100,73.25581
38133,73.25581
38167,73.25581
38200,73.25581
38233,73.25581
38267,73.25581
38300,73.25581
38333,73.25581
38367,73.25581
38400,74.6114
38433,74.6114
38467,73.25581
38500,73.25581
38533,73.09644
38567,73.09644
38600,73.09644
38633,73.09644
38667,73.09644
38700,73.09644
38733,73.09644
38767,73.09644
38800,73.25581
38833,73.25581
38867,73.25581
38900,73.25581
38933,73.25581
38967,73.25581
39000,73.25581
39033,73.25581
39067,73.25581
39100,73.25581
39133,73.25581
39167,73.25581
39200,73.25581
39233,73.25581
39267,73.25581
39300,73.84615
39333,73.84615
39367,73.84615
39400,73.84615
39433,72.36180999999998
39467,72.36180999999998
39500,72.36180999999998
39533,72.36180999999998
39567,72.36180999999998
39600,73.84615
39633,75.0
39667,75.0
39700,75.0
39733,75.0
39767,73.25581
39800,73.25581
39833,73.25581
39867,73.25581
39900,73.25581
39933,73.25581
39967,73.25581
40000,73.25581
40033,73.25581
40067,73.25581
40100,73.25581
40133,73.25581
40167,73.25581
40200,73.25581
40233,73.46939
40267,73.46939
40300,73.46939
40333,73.46939
40367,73.46939
40400,73.46939
40433,73.46939
40467,73.46939
40500,73.46939
40533,73.25581
40567,73.25581
40600,73.25581
40633,73.25581
40667,73.25581
40700,73.25581
40733,73.25581
40767,73.25581
40800,73.25581
40833,73.25581
40867,73.25581
40900,73.25581
40933,73.25581
40967,73.25581
41000,73.25581
41033,73.46939
41067,73.46939
41100,73.25581
41133,72.36180999999998
41167,72.36180999999998
41200,72.36180999999998
41233,72.36180999999998
41267,72.36180999999998
41300,72.36180999999998
41333,73.25581
41367,73.25581
41400,73.25581
41433,73.25581
41467,73.25581
41500,73.25581
41533,73.25581
41567,73.25581
41600,73.25581
41633,73.25581
41667,73.25581
41700,73.25581
41733,73.25581
41767,73.25581
41800,73.25581
41833,74.6114
41867,74.6114
41900,74.6114
41933,74.6114
41967,74.6114
42000,74.6114
42033,74.6114
42067,74.6114
42100,74.6114
42133,74.6114
42167,74.6114
42200,74.6114
42233,75.0
42267,75.0
42300,75.0
42333,75.0
42367,75.0
42400,75.0
42433,75.0
42467,75.0
42500,75.0
42533,75.0
42567,75.0
42600,75.0
42633,75.0
42667,75.0
42700,75.0
42733,75.0
42767,75.0
42800,75.0
42833,75.0
42867,75.0
42900,75.0
42933,75.0
42967,75.0
43000,70.93596
43033,70.93596
43067,69.23076999999999
43100,69.23076999999999
43133,69.23076999999999
43167,69.23076999999999
43200,69.23076999999999
43233,69.23076999999999
43267,69.23076999999999
43300,69.23076999999999
43333,69.23076999999999
43367,69.23076999999999
43400,69.23076999999999
43433,69.23076999999999
43467,69.23076999999999
43500,69.23076999999999
43533,69.23076999999999
43567,69.23076999999999
43600,69.23076999999999
43633,69.23076999999999
43667,69.23076999999999
43700,69.23076999999999
43733,69.23076999999999
43767,67.92453
43800,67.92453
43833,68.47825999999999
43867,68.47825999999999
43900,68.47825999999999
43933,68.47825999999999
43967,68.47825999999999
44000,68.47825999999999
44033,68.47825999999999
44067,68.47825999999999
44100,68.47825999999999
44133,68.47825999999999
44167,68.47825999999999
44200,68.47825999999999
44233,68.47825999999999
44267,68.47825999999999
44300,68.47825999999999
44333,68.47825999999999
44367,68.47825999999999
44400,68.47825999999999
44433,68.47825999999999
44467,68.47825999999999
44500,68.47825999999999
44533,67.92453
44567,67.92453
44600,67.92453
44633,67.92453
44667,67.92453
44700,67.92453
44733,67.92453
44767,67.92453
44800,69.61326
44833,69.61326
44867,69.61326
44900,69.61326
44933,69.61326
44967,69.61326
45000,69.61326
45033,69.61326
45067,69.61326
45100,69.61326
45133,69.61326
45167,69.61326
45200,72.0
45233,72.0
45267,72.0
45300,72.0
45333,72.0
45367,71.18644
45400,71.18644
45433,71.18644
45467,71.18644
45500,71.18644
45533,71.18644
45567,71.18644
45600,71.18644
45633,71.18644
45667,71.18644
45700,71.18644
45733,71.18644
45767,71.18644
45800,71.18644
45833,71.18644
45867,71.18644
45900,71.18644
45933,71.18644
45967,71.18644
46000,72.72726999999998
46033,72.72726999999998
46067,72.72726999999998
46100,72.72726999999998
46133,74.22681
46167,74.22681
46200,74.22681
46233,74.22681
46267,74.11765
46300,79.12088
46333,79.12088
46367,79.12088
46400,79.12088
46433,74.11765
46467,74.11765
46500,76.59574
46533,76.59574
46567,76.59574
46600,76.59574
46633,76.59574
46667,76.59574
46700,76.59574
46733,76.59574
46767,76.59574
46800,76.59574
46833,76.59574
46867,76.59574
46900,76.59574
46933,76.59574
46967,76.59574
47000,76.59574
47033,76.59574
47067,78.26087
47100,78.26087
47133,78.26087
47167,78.26087
47200,78.26087
47233,78.26087
47267,78.26087
47300,78.26087
47333,78.26087
47367,78.26087
47400,77.41936
47433,77.41936
47467,78.26087
47500,75.39267
47533,75.39267
47567,78.26087
47600,78.26087
47633,78.26087
47667,78.26087
47700,73.09644
47733,73.09644
47767,73.09644
47800,73.09644
47833,73.09644
47867,73.09644
47900,73.09644
47933,73.09644
47967,71.59091
48000,71.59091
48033,71.59091
48067,71.59091
48100,71.59091
48133,71.59091
48167,71.59091
48200,71.59091
48233,71.59091
48267,71.59091
48300,71.59091
48333,71.59091
48367,73.46939
48400,73.46939
48433,73.46939
48467,73.46939
48500,73.46939
48533,73.46939
48567,73.46939
48600,73.46939
48633,73.46939
48667,78.26087
48700,78.26087
48733,78.26087
48767,78.26087
48800,78.26087
48833,78.26087
48867,78.26087
48900,78.26087
48933,78.26087
48967,78.26087
49000,78.26087
49033,78.26087
49067,78.26087
49100,78.26087
49133,78.26087
49167,78.26087
49200,78.26087
49233,78.26087
49267,78.26087
49300,76.19048000000002
49333,76.19048000000002
49367,76.19048000000002
49400,76.19048000000002
49433,76.19048000000002
49467,76.19048000000002
49500,76.19048000000002
49533,76.19048000000002
49567,76.19048000000002
49600,76.19048000000002
49633,76.19048000000002
49667,76.19048000000002
49700,76.19048000000002
49733,76.19048000000002
49767,76.19048000000002
49800,76.19048000000002
49833,76.82927
49867,76.82927
49900,76.82927
49933,77.30060999999998
49967,77.30060999999998
50000,77.30060999999998
50033,77.30060999999998
50067,67.37968000000001
50100,66.25766999999999
50133,66.25766999999999
50167,66.31579
50200,66.31579
50233,66.31579
50267,66.31579
50300,66.31579
50333,66.31579
50367,66.31579
50400,66.31579
50433,66.31579
50467,66.31579
50500,66.31579
50533,66.31579
50567,66.31579
50600,66.31579
50633,66.31579
50667,65.85365999999999
50700,65.85365999999999
50733,65.85365999999999
50767,65.85365999999999
50800,66.25766999999999
50833,66.25766999999999
50867,66.25766999999999
50900,66.25766999999999
50933,66.25766999999999
50967,66.25766999999999
51000,66.25766999999999
51033,66.25766999999999
51067,66.25766999999999
51100,66.25766999999999
51133,65.625
51167,65.625
51200,65.625
51233,65.625
51267,65.625
51300,65.625
51333,65.625
51367,65.625
51400,65.625
51433,65.625
51467,65.625
51500,65.625
51533,65.625
51567,60.67416
51600,60.67416
51633,60.67416
51667,60.67416
51700,60.67416
51733,60.67416
51767,60.67416
51800,60.67416
51833,60.67416
51867,60.67416
51900,60.67416
51933,60.67416
51967,60.67416
52000,60.67416
52033,62.06896999999999
52067,62.06896999999999
52100,62.06896999999999
52133,62.06896999999999
52167,62.06896999999999
52200,62.06896999999999
52233,62.06896999999999
52267,62.06896999999999
52300,62.06896999999999
52333,59.66851
52367,62.06896999999999
52400,62.06896999999999
52433,58.69565
52467,58.69565
52500,58.69565
52533,58.69565
52567,58.69565
52600,58.69565
52633,58.69565
52667,58.69565
52700,58.69565
52733,58.69565
52767,58.69565
52800,58.69565
52833,58.69565
52867,58.69565
52900,58.69565
52933,58.69565
52967,58.69565
53000,58.69565
53033,58.69565
53067,58.69565
53100,58.69565
53133,62.93706
53167,62.93706
53200,62.93706
53233,62.93706
53267,62.93706
53300,62.93706
53333,62.93706
53367,62.93706
53400,62.93706
53433,62.93706
53467,62.93706
53500,63.52941
53533,62.93706
53567,62.93706
53600,62.93706
53633,62.93706
53667,62.93706
53700,62.93706
53733,62.93706
53767,62.93706
53800,58.69565
53833,58.69565
53867,58.69565
53900,58.69565
53933,58.69565
53967,58.69565
54000,58.69565
54033,58.69565
54067,58.69565
54100,58.69565
54133,58.69565
54167,58.69565
54200,59.01639
54233,59.01639
54267,59.01639
54300,59.01639
54333,59.01639
54367,59.01639
54400,59.01639
54433,59.01639
54467,61.76471
54500,59.01639
54533,59.01639
54567,59.01639
54600,59.01639
54633,59.01639
54667,59.01639
54700,59.01639
54733,59.01639
54767,58.69565
54800,58.69565
54833,58.37838000000001
54867,58.37838000000001
54900,58.37838000000001
54933,58.37838000000001
54967,63.63636
55000,63.63636
55033,63.63636
55067,63.63636
55100,63.63636
55133,73.09644
55167,73.09644
55200,74.55621
55233,74.55621
55267,73.25581
55300,78.68852
55333,78.26087
55367,78.26087
55400,78.26087
55433,78.26087
55467,78.26087
55500,78.26087
55533,78.26087
55567,78.26087
55600,78.26087
55633,83.93782
55667,83.93782
55700,83.93782
55733,83.93782
55767,83.93782
55800,83.93782
55833,83.93782
55867,83.93782
55900,83.93782
55933,88.66995
55967,88.66995
56000,93.64162
56033,93.64162
56067,93.64162
56100,93.64162
56133,104.0462
56167,104.0462
56200,104.0462
56233,104.0462
56267,108.1967
56300,118.0328
56333,118.0328
56367,118.0328
56400,118.0328
56433,118.0328
56467,118.0328
56500,118.0328
56533,118.0328
56567,118.0328
56600,118.0328
56633,129.8969
56667,129.8969
56700,129.8969
56733,129.8969
56767,129.8969
56800,129.8969
56833,129.8969
56867,129.8969
56900,129.8969
56933,129.8969
56967,139.1753
57000,147.3684
57033,147.3684
57067,146.7391
57100,146.7391
57133,146.7391
57167,156.5217
57200,156.5217
57233,156.5217
57267,156.5217
57300,156.5217
57333,156.5217
57367,156.5217
57400,156.5217
57433,146.7391
57467,146.7391
57500,146.1929
57533,146.1929
57567,146.1929
57600,146.1929
57633,146.1929
57667,146.1929
57700,146.1929
57733,146.1929
57767,143.61700000000005
57800,143.61700000000005
57833,143.61700000000005
57867,144.7236
57900,144.7236
57933,144.7236
57967,144.7236
58000,144.7236
58033,144.7236
58067,144.385
58100,144.385
58133,144.385
58167,144.385
58200,144.385
58233,154.0107
58267,153.7688
58300,153.7688
58333,153.7688
58367,154.5455
58400,154.5455
58433,154.5455
58467,154.0107
58500,154.0107
58533,154.0107
58567,154.0107
58600,154.0107
58633,154.0107
58667,154.0107
58700,154.0107
58733,154.0107
58767,154.0107
58800,154.0107
58833,152.5424
58867,132.2034
58900,132.2034
58933,132.2034
58967,132.2034
59000,132.2034
59033,132.2034
59067,132.2034
59100,132.2034
59133,132.2034
59167,125.8064
59200,125.8064
59233,116.129
59267,106.4516
59300,106.4516
59333,106.4516
59367,106.4516
59400,106.4516
59433,106.4516
59467,106.4516
59500,106.4516
59533,106.4516
59567,106.4516
59600,106.4516
59633,106.4516
59667,106.4516
59700,106.4516
59733,106.4516
59767,106.4516
59800,102.2727
59833,102.2727
59867,102.2727
59900,102.2727
59933,102.8571
59967,102.8571
60000,102.8571
60033,102.8571
60067,97.82609
60100,97.82609
60133,93.75
60167,84.375
60200,84.375
60233,84.375
60267,84.375
60300,84.375
60333,84.375
60367,75.0
60400,75.0
60433,75.0
60467,75.0
60500,75.0
60533,75.0
60567,75.4491
60600,75.4491
60633,75.4491
60667,75.4491
60700,75.4491
60733,75.4491
60767,75.4491
60800,75.4491
60833,75.4491
60867,75.4491
60900,75.4491
60933,75.39267
60967,75.39267
61000,75.39267
61033,75.39267
61067,75.39267
61100,75.39267
61133,75.39267
61167,75.39267
61200,75.39267
61233,75.39267
61267,75.39267
61300,75.39267
61333,75.39267
61367,75.39267
61400,70.0
61433,70.0
61467,70.0
61500,70.0
61533,70.0
61567,72.36180999999998
61600,72.36180999999998
61633,72.36180999999998
61667,72.36180999999998
61700,72.36180999999998
61733,67.37968000000001
61767,67.37968000000001
61800,67.37968000000001
61833,67.37968000000001
61867,67.37968000000001
61900,67.37968000000001
61933,67.37968000000001
61967,67.37968000000001
62000,67.37968000000001
62033,67.37968000000001
62067,71.28713
62100,80.19802
62133,80.19802
62167,82.75862
62200,82.75862
62233,82.75862
62267,82.75862
62300,82.75862
62333,82.75862
62367,82.75862
62400,82.75862
62433,82.75862
62467,82.75862
62500,82.75862
62533,82.75862
62567,82.75862
62600,82.75862
62633,82.75862
62667,82.75862
62700,82.75862
62733,82.75862
62767,82.75862
62800,82.75862
62833,82.75862
62867,82.75862
62900,82.75862
62933,82.75862
62967,82.75862
63000,82.75862
63033,79.80296
63067,79.80296
63100,80.89888
63133,70.78650999999998
63167,70.78650999999998
63200,70.78650999999998
63233,70.78650999999998
63267,70.78650999999998
63300,70.78650999999998
63333,70.78650999999998
63367,70.78650999999998
63400,70.78650999999998
63433,70.78650999999998
63467,70.78650999999998
63500,60.67416
63533,60.67416
63567,60.67416
63600,60.67416
63633,60.67416
63667,60.67416
63700,60.67416
63733,60.67416
63767,60.67416
63800,60.67416
63833,60.67416
63867,60.67416
63900,60.67416
63933,62.5
63967,62.5
64000,62.5
64033,62.5
64067,62.5
64100,62.5
64133,62.5
64167,62.5
64200,62.5
64233,62.5
64267,62.5
64300,62.5
64333,62.5
64367,62.5
64400,62.5
64433,62.5
64467,62.5
64500,62.5
64533,62.5
64567,62.5
64600,62.5
64633,62.5
64667,55.95855
64700,55.95855
64733,62.5
64767,55.10204
64800,55.10204
64833,54.82233000000001
64867,54.82233000000001
64900,54.82233000000001
64933,55.10204
64967,55.10204
65000,64.28571
65033,64.28571
65067,67.5
65100,67.5
65133,67.5
65167,67.5
65200,67.5
65233,67.5
65267,67.5
65300,67.5
65333,67.5
65367,67.5
65400,67.5
65433,67.5
65467,67.5
65500,67.5
65533,67.5
65567,67.5
65600,67.5
65633,67.5
65667,67.37968000000001
65700,67.37968000000001
65733,67.5
65767,66.31579
65800,66.31579
65833,66.31579
65867,66.31579
65900,66.31579
65933,66.31579
65967,66.31579
66000,66.31579
66033,66.31579
66067,66.31579
66100,66.31579
66133,66.31579
66167,66.31579
66200,66.31579
66233,66.31579
66267,63.905330000000006
66300,63.905330000000006
66333,63.905330000000006
66367,63.905330000000006
66400,63.905330000000006
66433,63.905330000000006
66467,63.905330000000006
66500,63.905330000000006
66533,63.905330000000006
66567,63.905330000000006
66600,63.905330000000006
66633,63.905330000000006
66667,63.905330000000006
66700,63.905330000000006
66733,63.905330000000006
66767,63.905330000000006
66800,63.905330000000006
66833,63.905330000000006
66867,63.905330000000006
66900,63.905330000000006
66933,63.905330000000006
66967,62.06896999999999
67000,62.06896999999999
67033,62.06896999999999
67067,62.06896999999999
67100,62.06896999999999
67133,62.06896999999999
67167,57.75401
67200,57.75401
67233,58.06452
67267,58.06452
67300,58.06452
67333,58.06452
67367,58.06452
67400,58.06452
67433,58.06452
67467,58.69565
67500,58.69565
67533,58.69565
67567,58.69565
67600,58.69565
67633,58.69565
67667,58.69565
67700,58.69565
67733,62.37624
67767,62.37624
67800,62.37624
67833,62.7907
67867,62.7907
67900,62.7907
67933,62.7907
67967,62.7907
68000,62.7907
68033,62.7907
68067,62.7907
68100,62.7907
68133,62.7907
68167,62.7907
68200,62.7907
68233,62.7907
68267,62.7907
68300,62.7907
68333,62.7907
68367,62.7907
68400,62.7907
68433,62.7907
68467,62.7907
68500,62.7907
68533,62.7907
68567,62.7907
68600,62.7907
68633,63.31658
68667,63.31658
68700,63.31658
68733,63.31658
68767,63.31658
68800,63.31658
68833,64.28571
68867,64.28571
68900,64.28571
68933,64.28571
68967,64.28571
69000,64.28571
69033,64.28571
69067,64.28571
69100,64.28571
69133,64.28571
69167,64.28571
69200,64.28571
69233,64.28571
69267,64.28571
69300,64.28571
69333,66.66666
69367,64.28571
69400,65.96859
69433,65.96859
69467,65.96859
69500,65.96859
69533,65.96859
69567,65.96859
69600,65.96859
69633,65.96859
69667,65.96859
69700,65.96859
69733,65.96859
69767,66.31579
69800,66.31579
69833,66.31579
69867,67.74194
69900,67.74194
69933,67.74194
69967,67.74194
70000,67.74194
70033,67.74194
70067,67.74194
70100,67.74194
70133,67.37968000000001
70167,67.37968000000001
70200,67.37968000000001
70233,67.37968000000001
70267,67.37968000000001
70300,72.0
70333,72.0
70367,72.0
70400,72.0
70433,72.0
70467,74.11765
70500,74.11765
70533,74.11765
70567,74.11765
70600,74.11765
70633,74.11765
70667,84.70588000000002
70700,89.01099
70733,89.01099
70767,89.01099
70800,89.01099
70833,89.01099
70867,89.01099
70900,89.01099
70933,89.01099
70967,89.01099
71000,89.01099
71033,89.01099
71067,98.9011
71100,102.0619
71133,102.0619
71167,98.9011
71200,111.3402
71233,111.3402
71267,111.3402
71300,111.3402
71333,111.3402
71367,108.7912
71400,108.7912
71433,111.3402
71467,126.9231
71500,126.9231
71533,126.9231
71567,126.9231
71600,126.9231
71633,126.9231
71667,126.9231
71700,126.9231
71733,126.9231
71767,126.9231
71800,122.7273
71833,122.7273
71867,122.7273
71900,122.7273
71933,122.7273
71967,122.7273
72000,122.7273
72033,125.1337
72067,125.1337
72100,125.1337
72133,125.1337
72167,125.1337
72200,125.1337
72233,126.0
72267,126.0
72300,126.0
72333,126.0
72367,126.0
72400,123.8095
72433,123.8095
72467,123.8095
72500,123.8095
72533,123.8095
72567,123.8095
72600,123.8095
72633,123.8095
72667,123.8095
72700,124.1379
72733,123.8095
72767,123.1579
72800,123.1579
72833,123.1579
72867,123.1579
72900,123.1579
72933,123.1579
72967,123.1579
73000,123.1579
73033,123.1579
73067,123.1579
73100,123.1579
73133,123.1579
73167,123.1579
73200,126.0
73233,126.0
73267,125.1337
73300,125.1337
73333,125.1337
73367,125.1337
73400,125.1337
73433,125.1337
73467,125.1337
73500,126.6332
73533,125.1337
73567,125.3731
73600,125.3731
73633,125.3731
73667,125.3731
73700,128.5714
73733,128.5714
73767,128.5714
73800,128.5714
73833,128.5714
73867,128.5714
73900,130.0
73933,130.0
73967,129.8969
74000,129.8969
74033,129.8969
74067,129.8969
74100,129.8969
74133,129.8969
74167,129.8969
74200,129.8969
74233,129.8969
74267,129.8969
74300,129.8969
74333,130.0
74367,130.0
74400,130.0
74433,130.0
74467,130.0
74500,130.0
74533,127.9188
74567,127.9188
74600,127.9188
74633,127.9188
74667,127.9188
74700,127.9188
74733,127.9188
74767,127.9188
74800,127.8689
74833,127.8689
74867,127.8689
74900,127.8689
74933,127.8689
74967,127.8689
75000,127.9188
75033,127.9188
75067,127.9188
75100,127.9188
75133,127.9188
75167,127.9188
75200,127.9188
75233,127.9188
75267,127.8689
75300,127.8689
75333,127.8689
75367,127.8689
75400,127.8689
75433,127.8689
75467,127.9188
75500,127.9188
75533,127.9188
75567,127.9188
75600,127.9188
75633,127.9188
75667,127.9188
75700,127.9188
75733,127.1739
75767,127.1739
75800,127.1739
75833,127.1739
75867,117.3913
75900,118.7817
75933,118.7817
75967,118.7817
76000,118.7817
76033,118.7817
76067,118.7817
76100,118.7817
76133,118.7817
76167,118.6813
76200,118.6813
76233,118.6813
76267,118.6813
76300,118.6813
76333,118.6813
76367,118.6813
76400,118.7817
76433,118.7817
76467,118.7817
76500,118.7817
76533,118.7817
76567,118.7817
76600,118.7817
76633,118.7817
76667,118.0328
76700,118.0328
76733,118.0328
76767,118.0328
76800,118.0328
76833,118.0328
76867,118.7817
76900,118.7817
76933,118.7817
76967,118.7817
77000,118.7817
77033,118.7817
77067,118.1818
77100,118.1818
77133,116.129
77167,116.129
77200,116.129
77233,116.129
77267,116.129
77300,116.129
77333,116.129
77367,116.129
77400,116.129
77433,116.129
77467,116.129
77500,114.7059
77533,113.089
77567,113.089
77600,113.089
77633,113.089
77667,113.089
77700,113.089
77733,113.089
77767,113.089
77800,113.089
77833,113.089
77867,113.089
77900,113.089
77933,113.089
77967,116.7568
78000,116.7568
78033,116.7568
78067,116.7568
78100,116.7568
78133,116.7568
78167,116.7568
78200,116.7568
78233,116.7568
78267,116.7568
78300,116.7568
78333,116.7568
78367,116.7568
78400,116.7568
78433,116.7568
78467,117.0
78500,117.0
78533,117.0
78567,117.0
78600,117.0
78633,116.129
78667,116.129
78700,116.129
78733,116.129
78767,116.129
78800,116.129
78833,116.129
78867,116.129
78900,116.129
78933,116.129
78967,116.129
79000,115.8416
79033,115.8416
79067,115.8416
79100,115.508
79133,115.508
79167,115.508
79200,115.508
79233,115.508
79267,115.508
79300,115.508
79333,115.508
79367,115.508
79400,115.508
79433,117.0
79467,117.0
79500,117.0
79533,117.0
79567,117.0
79600,122.7273
79633,122.7273
79667,122.7273
79700,122.7273
79733,122.7273
79767,122.7273
79800,122.7273
79833,122.7273
79867,122.7273
79900,122.7273
79933,122.5131
79967,122.5131
80000,122.5131
80033,122.5131
80067,122.5131
80100,122.5131
80133,122.5131
80167,122.5131
80200,122.5131
80233,122.5131
80267,122.5131
80300,122.5131
80333,124.1379
80367,124.1379
80400,122.5131
80433,122.5131
80467,122.5131
80500,122.5131
80533,122.5131
80567,122.5131
80600,122.5131
80633,122.5131
80667,122.5131
80700,122.5131
80733,122.5131
80767,122.5131
80800,124.1379
80833,124.1379
80867,124.1379
80900,124.1379
80933,124.1379
80967,124.1379
81000,124.1379
81033,124.1379
81067,124.1379
81100,124.1379
81133,121.875
81167,121.875
81200,121.875
81233,121.875
81267,121.875
81300,121.875
81333,121.875
81367,121.3483
81400,121.3483
81433,121.3483
81467,121.3483
81500,121.3483
81533,121.3483
81567,121.3483
81600,121.3483
81633,121.3483
81667,121.3483
81700,121.3483
81733,121.3483
81767,121.3483
81800,121.3483
81833,120.7317
81867,121.4724
81900,121.4724
81933,110.0
81967,110.6145
82000,110.6145
82033,110.6145
82067,110.6145
82100,110.6145
82133,110.6145
82167,110.6145
82200,110.6145
82233,106.4039
82267,115.2709
82300,113.6842
82333,113.6842
82367,113.6842
82400,113.6842
82433,113.6842
82467,119.2771
82500,119.2771
82533,108.5427
82567,108.5427
82600,108.5427
82633,108.5427
82667,108.5427
82700,108.5427
82733,107.6087
82767,107.6087
82800,107.6087
82833,107.6087
82867,107.6087
82900,107.6087
82933,107.6087
82967,107.6087
83000,107.6087
83033,107.027
83067,107.027
83100,107.027
83133,97.29729
83167,97.29729
83200,95.29412
83233,95.29412
83267,95.29412
83300,96.42857
83333,96.42857
83367,96.42857
83400,92.30769
83433,92.78351
83467,92.78351
83500,92.78351
83533,92.78351
83567,92.78351
83600,92.78351
83633,92.78351
83667,92.78351
83700,92.04546
83733,92.04546
83767,92.04546
83800,92.04546
83833,92.04546
83867,92.04546
83900,92.04546
83933,92.04546
83967,92.04546
84000,92.04546
84033,92.04546
84067,92.04546
84100,92.04546
84133,81.81818
84167,81.81818
84200,81.81818
84233,81.81818
84267,81.81818
84300,79.41176999999998
84333,77.77778
84367,75.0
84400,75.0
84433,75.0
84467,75.0
84500,75.0
84533,75.0
84567,75.0
84600,75.0
84633,75.0
84667,75.0
84700,75.0
84733,75.0
84767,75.0
84800,77.77778
84833,77.77778
84867,77.77778
84900,77.77778
84933,77.77778
84967,77.77778
85000,77.77778
85033,77.77778
85067,77.77778
85100,77.77778
85133,77.77778
85167,77.77778
85200,77.77778
85233,77.77778
85267,77.77778
85300,77.77778
85333,77.77778
85367,77.77778
85400,77.77778
85433,77.77778
85467,73.84615
85500,73.84615
85533,73.84615
85567,73.84615
85600,73.84615
85633,73.84615
85667,73.84615
85700,73.84615
85733,73.84615
85767,73.84615
85800,69.61326
85833,69.61326
85867,69.61326
85900,69.61326
85933,69.61326
85967,69.61326
86000,69.61326
86033,69.61326
86067,69.61326
86100,69.61326
86133,70.0
86167,70.0
86200,70.0
86233,70.93596
86267,66.31579
86300,66.31579
86333,66.31579
86367,66.31579
86400,66.31579
86433,66.31579
86467,66.31579
86500,66.31579
86533,66.31579
86567,66.31579
86600,66.31579
86633,66.31579
86667,66.31579
86700,66.31579
86733,64.28571
86767,64.28571
86800,64.28571
86833,64.28571
86867,64.28571
86900,64.28571
86933,64.28571
86967,64.28571
87000,64.28571
87033,65.625
87067,64.28571
87100,64.94846
87133,64.94846
87167,64.94846
87200,64.94846
87233,64.94846
87267,64.94846
87300,64.94846
87333,64.94846
87367,64.94846
87400,64.94846
87433,64.94846
87467,63.15789
87500,63.15789
87533,63.15789
87567,63.15789
87600,63.15789
87633,63.15789
87667,63.15789
87700,63.15789
87733,63.15789
87767,63.15789
87800,63.15789
87833,63.15789
87867,63.15789
87900,63.15789
87933,63.15789
87967,63.95939
88000,63.95939
88033,63.95939
88067,63.95939
88100,63.15789
88133,63.15789
88167,62.06896999999999
88200,62.06896999999999
88233,62.06896999999999
88267,62.06896999999999
88300,62.06896999999999
88333,62.06896999999999
88367,62.06896999999999
88400,62.06896999999999
88433,62.06896999999999
88467,62.06896999999999
88500,62.06896999999999
88533,62.06896999999999
88567,62.06896999999999
88600,62.06896999999999
88633,62.06896999999999
88667,62.06896999999999
88700,62.06896999999999
88733,62.06896999999999
88767,62.06896999999999
88800,62.06896999999999
88833,62.06896999999999
88867,62.06896999999999
88900,62.06896999999999
88933,62.06896999999999
88967,62.06896999999999
89000,62.06896999999999
89033,62.06896999999999
89067,62.06896999999999
89100,62.06896999999999
89133,62.06896999999999
89167,62.37624
89200,62.7907
89233,62.7907
89267,62.7907
89300,62.7907
89333,62.7907
89367,62.7907
89400,62.7907
89433,62.7907
89467,62.7907
89500,62.7907
89533,62.7907
89567,62.7907
89600,62.7907
89633,62.7907
89667,62.7907
89700,62.7907
89733,62.7907
89767,62.7907
89800,62.7907
89833,62.7907
89867,62.7907
89900,62.7907
89933,62.7907
89967,62.7907
90000,62.7907
90033,62.7907
90067,62.7907
90100,62.7907
90133,62.06896999999999
90167,62.06896999999999
90200,62.06896999999999
90233,62.06896999999999
90267,62.06896999999999
90300,62.06896999999999
90333,62.06896999999999
90367,62.06896999999999
90400,62.06896999999999
90433,62.06896999999999
90467,62.06896999999999
90500,62.06896999999999
90533,61.71429000000001
90567,61.71429000000001
90600,61.71429000000001
90633,61.71429000000001
90667,61.71429000000001
90700,61.71429000000001
90733,61.71429000000001
90767,61.71429000000001
90800,61.71429000000001
90833,61.71429000000001
90867,61.71429000000001
90900,61.71429000000001
90933,61.71429000000001
90967,61.71429000000001
91000,61.71429000000001
91033,61.71429000000001
91067,61.71429000000001
91100,61.71429000000001
91133,63.82979
91167,63.82979
91200,62.42775
91233,62.42775
91267,62.42775
91300,62.42775
91333,62.42775
91367,62.42775
91400,62.42775
91433,62.42775
91467,62.42775
91500,62.42775
91533,62.42775
91567,62.42775
91600,62.42775
91633,62.42775
91667,62.42775
91700,62.42775
91733,62.42775
91767,62.42775
91800,62.42775
91833,65.625
91867,65.625
91900,65.625
91933,65.625
91967,65.625
92000,65.625
92033,65.625
92067,65.625
92100,65.625
92133,65.625
92167,65.625
92200,65.625
92233,65.625
92267,64.28571
92300,64.28571
92333,64.28571
92367,64.28571
92400,64.28571
92433,64.28571
92467,64.28571
92500,64.28571
92533,64.28571
92567,64.28571
92600,64.28571
92633,64.28571
92667,64.28571
92700,64.28571
92733,64.28571
92767,64.28571
92800,64.28571
92833,64.28571
92867,64.28571
92900,64.28571
92933,64.28571
92967,64.28571
93000,64.28571
93033,64.28571
93067,62.7907
93100,62.7907
93133,62.7907
93167,62.7907
93200,62.7907
93233,62.7907
93267,67.37968000000001
93300,67.37968000000001
93333,62.7907
93367,62.7907
93400,62.7907
93433,65.625
93467,65.625
93500,65.625
93533,65.625
93567,65.625
93600,65.625
93633,65.625
93667,65.625
93700,65.625
93733,65.625
93767,65.625
93800,65.625
93833,65.625
93867,68.35443000000001
93900,68.35443000000001
93933,68.35443000000001
93967,68.35443000000001
94000,68.35443000000001
94033,68.35443000000001
94067,68.35443000000001
94100,68.35443000000001
94133,68.35443000000001
94167,68.35443000000001
94200,68.35443000000001
94233,68.35443000000001
94267,68.35443000000001
94300,68.35443000000001
94333,68.35443000000001
94367,67.74194
94400,67.74194
94433,67.74194
94467,67.74194
94500,67.74194
94533,67.74194
94567,67.74194
94600,67.74194
94633,67.74194
94667,67.74194
94700,67.74194
94733,67.74194
94767,67.74194
94800,67.74194
94833,67.74194
94867,67.74194
94900,67.74194
94933,67.74194
94967,67.74194
95000,68.35443000000001
95033,68.35443000000001
95067,68.35443000000001
95100,68.35443000000001
95133,68.35443000000001
95167,68.35443000000001
95200,68.35443000000001
95233,68.35443000000001
95267,68.35443000000001
95300,68.35443000000001
95333,68.35443000000001
95367,68.35443000000001
95400,66.66666
95433,67.02128
95467,67.02128
95500,67.02128
95533,67.02128
95567,66.66666
95600,66.66666
95633,66.66666
95667,66.66666
95700,66.66666
95733,66.66666
95767,66.66666
95800,66.66666
95833,66.66666
95867,66.66666
95900,66.66666
95933,68.35443000000001
95967,68.35443000000001
96000,68.35443000000001
96033,68.78981
96067,68.78981
96100,70.78650999999998
96133,68.78981
96167,68.78981
96200,68.78981
96233,68.78981
96267,73.25581
96300,77.83784
96333,78.68852
96367,78.68852
96400,78.68852
96433,78.68852
96467,79.12088
96500,79.12088
96533,79.12088
96567,79.12088
96600,79.12088
96633,79.12088
96667,79.12088
96700,83.07692
96733,83.07692
96767,83.07692
96800,83.07692
96833,83.50516
96867,83.50516
96900,83.50516
96933,83.50516
96967,83.50516
97000,83.50516
97033,83.50516
97067,87.27273000000002
97100,87.27273000000002
97133,87.27273000000002
97167,87.27273000000002
97200,87.80488000000004
97233,87.80488000000004
97267,87.80488000000004
97300,87.80488000000004
97333,87.80488000000004
97367,87.56756999999998
97400,87.56756999999998
97433,87.56756999999998
97467,87.56756999999998
97500,87.56756999999998
97533,87.56756999999998
97567,87.56756999999998
97600,87.56756999999998
97633,87.56756999999998
97667,87.56756999999998
97700,87.56756999999998
97733,88.04348
97767,91.37056
97800,91.37056
97833,91.37056
97867,100.5076
97900,100.5076
97933,100.5076
97967,100.5076
98000,100.5076
98033,103.4483
98067,103.4483
98100,103.4483
98133,107.027
98167,116.7568
98200,116.7568
98233,116.7568
98267,116.7568
98300,116.7568
98333,116.7568
98367,116.7568
98400,116.7568
98433,116.7568
98467,116.7568
98500,116.7568
98533,118.7817
98567,118.7817
98600,118.7817
98633,118.7817
98667,118.7817
98700,118.7817
98733,118.7817
98767,118.7817
98800,124.8555
98833,124.8555
98867,124.8555
98900,124.8555
98933,126.4865
98967,124.8555
99000,124.8555
99033,124.8555
99067,124.4681
99100,124.1379
99133,124.1379
99167,124.1379
99200,124.1379
99233,124.1379
99267,124.1379
99300,119.3878
99333,123.4286
99367,118.1818
99400,118.1818
99433,118.1818
99467,118.1818
99500,118.1818
99533,118.1818
99567,118.1818
99600,114.8936
99633,114.8936
99667,114.8936
99700,114.8936
99733,114.8936
99767,114.8936
99800,114.8936
99833,114.8936
99867,114.8936
99900,114.8936
99933,112.5
99967,111.3402
100000,111.3402
100033,112.5
100067,112.5
100100,112.5
100133,108.5427
100167,108.5427
100200,108.5427
100233,108.5427
100267,108.5427
100300,108.5427
100333,114.4509
100367,114.4509
100400,114.4509
100433,114.4509
100467,114.4509
100500,93.64162
100533,93.64162
100567,93.64162
100600,93.64162
100633,93.64162
100667,93.64162
100700,93.64162
100733,93.64162
100767,93.64162
100800,93.64162
100833,93.64162
100867,93.64162
100900,93.64162
100933,93.26425
100967,93.26425
101000,93.26425
101033,93.26425
101067,93.26425
101100,93.26425
101133,93.26425
101167,93.26425
101200,100.6211
101233,100.6211
101267,100.6211
101300,100.6211
101333,100.6211
101367,100.6211
101400,100.6211
101433,100.6211
101467,100.6211
101500,100.6211
101533,100.6211
101567,100.6211
101600,97.29729
101633,100.6211
101667,100.6211
101700,95.74468
101733,95.74468
101767,95.74468
101800,95.74468
101833,95.74468
101867,95.74468
101900,95.74468
101933,95.74468
101967,95.74468
102000,95.74468
102033,95.74468
102067,95.74468
102100,95.74468
102133,95.74468
102167,95.74468
102200,95.74468
102233,95.74468
102267,92.57143
102300,92.57143
102333,92.57143
102367,92.30769
102400,92.30769
102433,92.30769
102467,92.30769
102500,92.30769
102533,92.30769
102567,92.30769
102600,92.30769
102633,92.30769
102667,92.30769
102700,88.52459
102733,88.52459
102767,88.52459
102800,91.83673
102833,88.52459
102867,90.90909
102900,90.90909
102933,90.90909
102967,90.90909
103000,90.90909
103033,90.90909
103067,90.90909
103100,86.63101999999998
103133,86.63101999999998
103167,86.63101999999998
103200,86.63101999999998
103233,86.63101999999998
103267,86.63101999999998
103300,86.63101999999998
103333,86.63101999999998
103367,86.63101999999998
103400,86.63101999999998
103433,86.63101999999998
103467,82.28571
103500,82.28571
103533,72.0
103567,72.0
103600,73.09644
103633,73.09644
103667,73.09644
103700,73.09644
103733,73.09644
103767,73.09644
103800,73.09644
103833,73.09644
103867,72.83237
103900,72.83237
103933,72.83237
103967,72.83237
104000,72.83237
104033,72.83237
104067,72.83237
104100,72.83237
104133,72.83237
104167,72.83237
104200,72.83237
104233,72.83237
104267,72.83237
104300,72.83237
104333,72.83237
104367,72.83237
104400,73.09644
104433,72.83237
104467,72.36180999999998
104500,72.36180999999998
104533,72.36180999999998
104567,72.36180999999998
104600,72.36180999999998
104633,72.36180999999998
104667,73.68421
104700,73.68421
104733,73.68421
104767,73.68421
104800,73.68421
104833,73.68421
104867,73.68421
104900,73.68421
104933,73.68421
104967,73.68421
105000,73.68421
105033,73.68421
105067,73.68421
105100,73.68421
105133,73.68421
105167,73.68421
105200,73.68421
105233,73.68421
105267,73.68421
105300,73.68421
105333,73.68421
105367,73.68421
105400,73.68421
105433,73.68421
105467,73.68421
105500,73.68421
105533,70.93596
105567,70.93596
105600,68.10811
105633,68.10811
105667,68.10811
105700,68.10811
105733,68.10811
105767,68.10811
105800,68.10811
105833,68.10811
105867,68.10811
105900,68.10811
105933,68.10811
105967,68.10811
106000,68.10811
106033,68.10811
106067,68.10811
106100,68.10811
106133,68.10811
106167,68.10811
106200,66.66666
106233,68.85246
106267,66.66666
106300,66.66666
106333,66.66666
106367,67.37968000000001
106400,67.37968000000001
106433,67.37968000000001
106467,67.37968000000001
106500,67.37968000000001
106533,67.37968000000001
106567,67.37968000000001
106600,67.37968000000001
106633,67.37968000000001
106667,67.37968000000001
106700,67.37968000000001
106733,67.37968000000001
106767,67.37968000000001
106800,67.37968000000001
106833,67.37968000000001
106867,67.37968000000001
106900,67.37968000000001
106933,67.37968000000001
106967,65.45454000000001
107000,65.45454000000001
107033,68.47825999999999
107067,68.47825999999999
107100,68.47825999999999
107133,68.47825999999999
107167,68.47825999999999
107200,68.47825999999999
107233,68.47825999999999
107267,68.10811
107300,68.10811
107333,68.10811
107367,68.10811
107400,68.10811
107433,68.10811
107467,68.10811
107500,68.10811
107533,68.10811
107567,68.10811
107600,68.10811
107633,70.93596
107667,70.93596
107700,70.78650999999998
107733,70.78650999999998
107767,70.78650999999998
107800,70.39106
107833,70.39106
107867,70.39106
107900,70.39106
107933,70.39106
107967,70.39106
108000,70.39106
108033,70.39106
108067,70.39106
108100,70.39106
108133,70.39106
108167,70.39106
108200,70.39106
108233,70.39106
108267,70.39106
108300,70.39106
108333,70.39106
108367,70.39106
108400,71.64179
108433,71.64179
108467,71.64179
108500,71.64179
108533,75.90361999999998
108567,75.90361999999998
108600,75.90361999999998
108633,75.90361999999998
108667,75.90361999999998
108700,75.90361999999998
108733,75.90361999999998
108767,75.90361999999998
108800,75.90361999999998
108833,75.90361999999998
108867,75.90361999999998
108900,75.90361999999998
108933,75.90361999999998
108967,75.90361999999998
109000,75.90361999999998
109033,75.90361999999998
109067,75.90361999999998
109100,75.90361999999998
109133,75.90361999999998
109167,75.90361999999998
109200,75.90361999999998
109233,75.90361999999998
109267,75.0
109300,75.0
109333,65.625
109367,65.625
109400,65.625
109433,65.625
109467,65.625
109500,65.625
109533,65.625
109567,65.625
109600,65.625
109633,65.625
109667,65.625
109700,63.52941
109733,63.52941
109767,63.52941
109800,63.52941
109833,63.52941
109867,63.52941
109900,63.52941
109933,63.52941
109967,63.52941
110000,63.52941
110033,63.52941
110067,63.52941
110100,64.61539
110133,64.61539
110167,64.61539
110200,64.61539
110233,64.61539
110267,64.61539
110300,64.61539
110333,64.61539
110367,64.61539
110400,64.61539
110433,64.28571
110467,64.28571
110500,64.28571
110533,64.28571
110567,64.28571
110600,64.28571
110633,64.28571
110667,64.28571
110700,64.28571
110733,64.28571
110767,64.28571
110800,64.28571
110833,64.28571
110867,64.28571
110900,64.28571
110933,64.28571
110967,64.28571
111000,64.28571
111033,64.28571
111067,64.28571
111100,64.28571
111133,64.28571
111167,64.28571
111200,62.68657
111233,62.68657
111267,62.68657
111300,62.68657
111333,63.15789
111367,63.15789
111400,63.15789
111433,63.15789
111467,63.15789
111500,63.15789
111533,63.15789
111567,63.15789
111600,63.15789
111633,63.15789
111667,63.15789
111700,63.15789
111733,63.15789
111767,63.15789
111800,63.15789
111833,63.15789
111867,63.15789
111900,63.15789
111933,63.15789
111967,63.15789
112000,63.15789
112033,63.15789
112067,63.15789
112100,63.15789
112133,63.15789
112167,63.15789
112200,63.15789
112233,63.15789
112267,63.15789
112300,63.15789
112333,62.06896999999999
112367,62.06896999999999
112400,62.06896999999999
112433,62.06896999999999
112467,62.06896999999999
112500,62.06896999999999
112533,62.06896999999999
112567,62.06896999999999
112600,62.06896999999999
112633,62.06896999999999
112667,62.06896999999999
112700,62.06896999999999
112733,62.06896999999999
112767,62.06896999999999
112800,62.06896999999999
112833,62.06896999999999
112867,55.38462
112900,55.38462
112933,55.38462
112967,55.38462
113000,55.38462
113033,55.38462
113067,55.38462
113100,55.38462
113133,55.38462
113167,55.38462
113200,55.55556
113233,55.55556
113267,55.55556
113300,55.55556
113333,55.55556
113367,55.55556
113400,55.55556
113433,55.55556
113467,55.55556
113500,55.55556
113533,55.55556
113567,55.55556
113600,55.55556
113633,55.55556
113667,55.55556
113700,55.55556
113733,55.55556
113767,55.55556
113800,55.55556
113833,55.55556
113867,55.55556
113900,55.55556
113933,55.55556
113967,55.55556
114000,55.55556
114033,55.55556
114067,55.55556
114100,55.55556
114133,55.55556
114167,55.55556
114200,53.73134
114233,53.46535
114267,53.46535
114300,53.46535
114333,51.42857
114367,51.42857
114400,51.42857
114433,51.42857
114467,51.72414000000001
114500,51.72414000000001
114533,51.72414000000001
114567,51.72414000000001
114600,51.72414000000001
114633,51.72414000000001
114667,51.72414000000001
114700,51.72414000000001
114733,51.72414000000001
114767,51.72414000000001
114800,51.72414000000001
114833,51.72414000000001
114867,51.72414000000001
114900,51.72414000000001
114933,51.72414000000001
114967,51.72414000000001
115000,51.72414000000001
115033,54.27136
115067,54.27136
115100,54.27136
115133,54.27136
115167,54.27136
115200,54.27136
115233,52.02312
115267,52.02312
115300,52.02312
115333,52.02312
115367,52.02312
115400,52.02312
115433,52.02312
115467,52.02312
115500,52.02312
115533,52.02312
115567,52.02312
115600,52.02312
115633,52.02312
115667,52.02312
115700,55.95855
115733,52.02312
115767,56.5445
115800,56.5445
115833,56.5445
115867,56.5445
115900,56.5445
115933,56.84211
115967,56.84211
116000,56.84211
116033,56.84211
116067,56.84211
116100,54.54546
116133,54.54546
116167,54.54546
116200,54.54546
116233,54.54546
116267,54.54546
116300,54.54546
116333,48.64865
116367,48.64865
116400,48.64865
116433,48.64865
116467,47.12042
116500,47.12042
116533,47.12042
116567,47.12042
116600,47.12042
116633,47.12042
116667,47.12042
116700,47.12042
116733,47.12042
116767,47.12042
116800,47.12042
116833,47.12042
116867,47.12042
116900,47.12042
116933,45.56962
116967,45.56962
117000,45.56962
117033,45.56962
117067,45.56962
117100,45.56962
117133,45.56962
117167,45.56962
117200,45.56962
117233,45.56962
117267,45.56962
117300,45.56962
117333,45.56962
117367,45.56962
117400,45.56962
117433,45.56962
117467,45.56962
117500,45.56962
117533,47.36842
117567,47.36842
117600,47.36842
117633,47.36842
117667,47.36842
117700,47.36842
117733,47.36842
117767,47.36842
117800,47.36842
117833,47.36842
117867,47.36842
117900,47.36842
117933,47.36842
117967,47.36842
118000,47.36842
118033,51.79856
118067,51.79856
118100,51.79856
118133,51.79856
118167,51.79856
118200,51.79856
118233,51.79856
118267,51.79856
118300,51.79856
118333,51.79856
118367,51.79856
118400,51.79856
118433,51.79856
118467,51.79856
118500,51.79856
118533,51.79856
118567,52.94118
118600,52.94118
118633,52.94118
118667,52.94118
118700,52.94118
118733,52.94118
118767,52.94118
118800,52.94118
118833,52.94118
118867,52.94118
118900,52.94118
118933,52.94118
118967,52.94118
119000,52.94118
119033,52.94118
119067,52.94118
119100,52.94118
119133,52.94118
119167,52.94118
119200,52.94118
119233,52.94118
119267,52.94118
119300,52.94118
119333,52.94118
119367,52.94118
119400,52.94118
119433,52.94118
119467,52.94118
119500,52.94118
119533,55.10204
119567,55.10204
119600,55.10204
119633,55.38462
119667,55.38462
119700,55.38462
119733,57.69231
119767,57.69231
119800,57.69231
119833,57.69231
119867,57.69231
119900,57.69231
119933,57.69231
119967,57.69231
120000,57.69231
120033,57.69231
120067,57.69231
120100,57.69231
120133,57.69231
120167,57.69231
120200,60.0
120233,60.0
120267,60.0
120300,60.0
120333,60.0
120367,60.0
120400,60.0
120433,60.0
120467,60.0
120500,60.33519
120533,60.33519
120567,60.33519
120600,60.33519
120633,60.33519
120667,60.33519
120700,60.33519
120733,60.33519
120767,60.33519
120800,60.33519
120833,60.33519
120867,60.33519
120900,60.33519
120933,60.33519
120967,60.33519
121000,60.33519
121033,59.66851
121067,59.66851
121100,59.66851
121133,59.66851
121167,59.66851
121200,59.66851
121233,59.66851
121267,59.66851
121300,59.66851
121333,59.66851
121367,59.66851
121400,59.66851
121433,59.66851
121467,59.66851
121500,59.66851
121533,59.66851
121567,59.66851
121600,59.66851
121633,59.66851
121667,59.66851
121700,59.66851
121733,59.66851
121767,62.06896999999999
121800,62.06896999999999
121833,67.92453
121867,67.92453
121900,67.92453
121933,67.92453
121967,67.92453
122000,67.92453
122033,67.92453
122067,67.92453
122100,67.92453
122133,67.92453
122167,67.92453
122200,67.92453
122233,67.92453
122267,67.92453
122300,67.92453
122333,67.92453
122367,67.92453
122400,67.92453
122433,67.92453
122467,67.92453
122500,67.92453
122533,67.92453
122567,67.92453
122600,67.92453
122633,67.92453
122667,67.74194
122700,67.74194
122733,67.74194
122767,67.74194
122800,67.74194
122833,67.74194
122867,67.74194
122900,67.74194
122933,67.74194
122967,67.74194
123000,67.74194
123033,67.74194
123067,67.74194
123100,67.74194
123133,67.74194
123167,67.74194
123200,67.74194
123233,67.74194
123267,67.74194
123300,70.12987
123333,70.12987
123367,70.12987
123400,70.12987
123433,70.12987
123467,70.12987
123500,70.12987
123533,70.12987
123567,70.12987
123600,69.23076999999999
123633,69.23076999999999
123667,69.23076999999999
123700,69.23076999999999
123733,69.23076999999999
123767,69.23076999999999
123800,69.23076999999999
123833,69.23076999999999
123867,69.23076999999999
123900,69.23076999999999
123933,69.23076999999999
123967,69.23076999999999
124000,69.23076999999999
124033,69.23076999999999
124067,69.23076999999999
124100,69.23076999999999
124133,69.23076999999999
124167,69.23076999999999
124200,69.23076999999999
124233,69.23076999999999
124267,69.23076999999999
124300,69.23076999999999
124333,69.23076999999999
124367,71.52318000000002
124400,71.52318000000002
124433,71.52318000000002
124467,71.18644
124500,71.18644
124533,71.18644
124567,70.78650999999998
124600,70.78650999999998
124633,70.78650999999998
124667,70.78650999999998
124700,70.78650999999998
124733,70.78650999999998
124767,71.18644
124800,71.18644
124833,71.18644
124867,71.18644
124900,71.18644
124933,71.18644
124967,71.18644
125000,71.18644
125033,71.18644
125067,71.18644
125100,71.18644
125133,71.18644
125167,71.18644
125200,72.36180999999998
125233,71.18644
125267,71.18644
125300,71.18644
125333,70.93596
125367,70.93596
125400,71.18644
125433,71.18644
125467,71.18644
125500,71.18644
125533,71.18644
125567,71.18644
125600,71.18644
125633,71.18644
125667,71.18644
125700,71.18644
125733,71.18644
125767,71.18644
125800,71.18644
125833,71.18644
125867,71.18644
125900,75.39267
125933,75.39267
125967,75.39267
126000,75.39267
126033,75.39267
126067,75.39267
126100,75.39267
126133,75.39267
126167,75.39267
126200,75.39267
126233,75.39267
126267,75.0
126300,75.0
126333,75.0
126367,75.0
126400,75.0
126433,75.0
126467,75.0
126500,75.0
126533,75.78947
126567,75.78947
126600,75.78947
126633,75.78947
126667,75.78947
126700,75.78947
126733,75.78947
126767,75.78947
126800,75.78947
126833,75.78947
126867,75.78947
126900,75.78947
126933,74.6114
126967,74.6114
127000,74.6114
127033,75.0
127067,75.0
127100,75.0
127133,75.0
127167,75.0
127200,75.0
127233,75.0
127267,75.0
127300,78.26087
127333,78.26087
127367,78.26087
127400,78.26087
127433,78.26087
127467,78.26087
127500,78.26087
127533,78.26087
127567,78.26087
127600,78.26087
127633,78.26087
127667,81.40704000000002
127700,78.26087
127733,78.26087
127767,80.19802
127800,80.19802
127833,80.19802
127867,80.0
127900,80.0
127933,80.0
127967,80.0
128000,80.0
128033,80.0
128067,80.0
128100,80.0
128133,80.0
128167,80.0
128200,80.0
128233,80.0
128267,80.0
128300,80.0
128333,80.0
128367,80.0
128400,80.0
128433,80.0
128467,80.0
128500,80.0
128533,80.0
128567,80.0
128600,82.89474
128633,80.89888
128667,80.89888
128700,80.89888
128733,80.89888
128767,80.89888
128800,80.89888
128833,80.89888
128867,80.89888
128900,80.89888
128933,80.89888
128967,80.89888
129000,80.89888
129033,80.89888
129067,80.89888
129100,80.89888
129133,80.89888
129167,80.89888
129200,80.89888
129233,80.89888
129267,80.89888
129300,80.89888
129333,80.89888
129367,80.89888
129400,80.89888
129433,80.89888
129467,80.89888
129500,80.89888
129533,82.28571
129567,82.28571
129600,82.28571
129633,82.28571
129667,82.28571
129700,82.28571
129733,82.28571
129767,82.28571
129800,82.28571
129833,82.28571
129867,82.28571
129900,82.28571
129933,85.26316
129967,85.26316
130000,85.26316
130033,85.26316
130067,85.26316
130100,85.26316
130133,85.26316
130167,85.26316
130200,85.26316
130233,85.26316
130267,85.26316
130300,85.26316
130333,85.26316
130367,85.26316
130400,85.26316
130433,87.80488000000004
130467,87.80488000000004
130500,87.80488000000004
130533,87.80488000000004
130567,87.80488000000004
130600,87.80488000000004
130633,87.80488000000004
130667,87.80488000000004
130700,86.63101999999998
130733,86.63101999999998
130767,86.63101999999998
130800,86.63101999999998
130833,86.63101999999998
130867,86.63101999999998
130900,86.63101999999998
130933,86.63101999999998
130967,86.63101999999998
131000,86.63101999999998
131033,86.63101999999998
131067,86.63101999999998
131100,86.63101999999998
131133,86.63101999999998
131167,86.63101999999998
131200,86.63101999999998
131233,86.63101999999998
131267,86.63101999999998
131300,89.44099
131333,89.44099
131367,89.44099
131400,89.44099
131433,89.44099
131467,89.44099
131500,89.44099
131533,89.44099
131567,86.63101999999998
131600,86.63101999999998
131633,86.63101999999998
131667,86.63101999999998
131700,86.63101999999998
131733,86.63101999999998
131767,86.63101999999998
131800,86.63101999999998
131833,86.63101999999998
131867,86.63101999999998
131900,86.63101999999998
131933,86.63101999999998
131967,86.63101999999998
132000,86.63101999999998
132033,86.63101999999998
132067,86.63101999999998
132100,86.63101999999998
132133,86.63101999999998
132167,83.23699
132200,83.23699
132233,83.23699
132267,83.23699
132300,83.23699
132333,83.23699
132367,83.23699
132400,83.23699
132433,83.23699
132467,83.23699
132500,83.23699
132533,83.23699
132567,83.23699
132600,83.23699
132633,80.0
132667,80.0
132700,80.0
132733,80.0
132767,85.13513
132800,85.13513
132833,85.13513
132867,77.00535
132900,77.00535
132933,77.00535
132967,77.00535
133000,77.00535
133033,77.00535
133067,77.00535
133100,77.00535
133133,77.00535
133167,77.00535
133200,77.00535
133233,77.00535
133267,77.00535
133300,77.00535
133333,77.00535
133367,77.00535
133400,77.00535
133433,77.00535
133467,73.68421
133500,73.68421
133533,73.68421
133567,73.68421
133600,73.68421
133633,73.68421
133667,73.68421
133700,73.68421
133733,73.09644
133767,73.09644
133800,73.68421
133833,72.0
133867,72.0
133900,72.0
133933,72.0
133967,72.0
134000,70.0
134033,70.0
134067,70.0
134100,70.0
134133,70.0
134167,70.0
134200,70.0
134233,75.78947
134267,75.78947
134300,75.78947
134333,75.78947
134367,75.78947
134400,75.78947
134433,75.78947
134467,75.78947
134500,75.78947
134533,75.78947
134567,75.78947
134600,85.26316
134633,89.10891
134667,89.10891
134700,89.10891
134733,91.01124
134767,100.5587
134800,91.01124
134833,91.01124
134867,91.01124
134900,91.52542
134933,91.52542
134967,91.52542
135000,91.52542
135033,94.73684
135067,85.26316
135100,86.74699
135133,75.90361999999998
135167,74.22681
135200,74.22681
135233,74.22681
135267,74.22681
135300,74.22681
135333,74.22681
135367,74.22681
135400,74.22681
135433,74.22681
135467,74.22681
135500,74.22681
135533,73.25581
135567,73.25581
135600,73.25581
135633,73.25581
135667,73.25581
135700,73.25581
135733,73.25581
135767,73.25581
135800,73.25581
135833,73.25581
135867,73.25581
135900,73.25581
135933,73.25581
135967,73.25581
136000,73.25581
136033,73.25581
136067,73.25581
136100,73.25581
136133,73.25581
136167,73.25581
136200,73.25581
136233,70.58823000000002
136267,66.31579
136300,66.31579
136333,66.31579
136367,66.31579
136400,66.31579
136433,66.31579
136467,66.31579
136500,66.31579
136533,66.31579
136567,66.31579
136600,66.31579
136633,66.31579
136667,66.31579
136700,66.31579
136733,64.28571
136767,64.28571
136800,64.28571
136833,64.28571
136867,64.28571
136900,64.28571
136933,64.28571
136967,64.28571
137000,64.28571
137033,64.28571
137067,64.28571
137100,64.28571
137133,64.28571
137167,64.28571
137200,64.28571
137233,64.28571
137267,64.28571
137300,64.28571
137333,64.28571
137367,64.28571
137400,64.28571
137433,64.28571
137467,65.69343
137500,61.71429000000001
137533,65.69343
137567,61.01695
137600,61.01695
137633,61.01695
137667,61.01695
137700,61.01695
137733,61.01695
137767,61.01695
137800,61.01695
137833,50.84746
137867,50.84746
137900,50.84746
137933,50.84746
137967,50.84746
138000,50.84746
138033,50.84746
138067,50.84746
138100,50.84746
138133,50.84746
138167,50.84746
138200,50.84746
138233,50.84746
138267,50.84746
138300,50.84746
138333,50.84746
138367,50.84746
138400,50.84746
138433,50.84746
138467,50.84746
138500,50.34965
138533,50.34965
138567,50.34965
138600,50.34965
138633,51.42857
138667,50.34965
138700,50.84746
138733,50.84746
138767,50.84746
138800,50.84746
138833,50.84746
138867,50.84746
138900,50.84746
138933,50.84746
138967,50.84746
139000,50.84746
139033,50.84746
139067,50.84746
139100,50.84746
139133,50.84746
139167,50.84746
139200,50.84746
139233,50.84746
139267,50.84746
139300,50.84746
139333,50.84746
139367,50.84746
139400,50.84746
139433,50.84746
139467,50.84746
139500,50.84746
139533,50.84746
139567,50.84746
139600,52.94118
139633,53.20197
139667,52.02312
139700,49.31507
139733,52.32558
139767,52.32558
139800,52.32558
139833,52.32558
139867,52.32558
139900,52.32558
139933,52.32558
139967,52.32558
140000,52.32558
140033,52.32558
140067,52.32558
140100,52.32558
140133,52.32558
140167,52.32558
140200,52.32558
140233,56.25
140267,56.25
140300,56.25
140333,56.25
140367,56.25
140400,56.25
140433,56.25
140467,56.25
140500,56.25
140533,56.25
140567,56.25
140600,56.25
140633,56.25
140667,59.21053000000001
140700,59.21053000000001
140733,59.21053000000001
140767,59.21053000000001
140800,59.21053000000001
140833,59.21053000000001
140867,59.21053000000001
140900,59.21053000000001
140933,62.42775
140967,59.21053000000001
141000,59.21053000000001
141033,61.36364
141067,61.36364
141100,61.36364
141133,61.36364
141167,61.36364
141200,61.71429000000001
141233,61.71429000000001
141267,61.71429000000001
141300,61.71429000000001
141333,61.71429000000001
141367,61.71429000000001
141400,61.71429000000001
141433,61.71429000000001
141467,61.71429000000001
141500,61.71429000000001
141533,61.71429000000001
141567,61.71429000000001
141600,61.71429000000001
141633,61.71429000000001
141667,61.71429000000001
141700,61.71429000000001
141733,63.95939
141767,61.71429000000001
141800,63.31658
141833,63.31658
141867,63.31658
141900,63.31658
141933,63.31658
141967,63.31658
142000,65.45454000000001
142033,65.45454000000001
142067,65.45454000000001
142100,65.85365999999999
142133,65.85365999999999
142167,65.85365999999999
142200,65.85365999999999
142233,65.85365999999999
142267,65.85365999999999
142300,65.85365999999999
142333,65.85365999999999
142367,65.45454000000001
142400,68.85246
142433,68.85246
142467,68.85246
142500,68.85246
142533,68.85246
142567,68.85246
142600,68.85246
142633,68.85246
142667,68.85246
142700,68.85246
142733,68.85246
142767,68.85246
142800,68.85246
142833,68.85246
142867,68.85246
142900,68.85246
142933,68.85246
142967,68.85246
143000,68.85246
143033,68.85246
143067,68.85246
143100,68.85246
143133,62.06896999999999
143167,62.06896999999999
143200,62.06896999999999
143233,62.06896999999999
143267,63.15789
143300,63.15789
143333,63.15789
143367,63.15789
143400,63.15789
143433,63.15789
143467,63.15789
143500,63.15789
143533,63.15789
143567,63.15789
143600,63.15789
143633,63.15789
143667,63.15789
143700,63.15789
143733,63.15789
143767,63.15789
143800,63.15789
143833,63.15789
143867,63.15789
143900,63.15789
143933,63.15789
143967,63.15789
144000,63.15789
144033,63.15789
144067,63.15789
144100,63.15789
144133,63.15789
144167,63.15789
144200,63.15789
144233,63.15789
144267,63.15789
144300,62.68657
144333,62.37624
144367,62.37624
144400,64.28571
144433,64.28571
144467,64.28571
144500,64.28571
144533,64.28571
144567,64.28571
144600,64.28571
144633,64.28571
144667,64.28571
144700,64.28571
144733,64.28571
144767,64.28571
144800,64.28571
144833,64.28571
144867,64.28571
144900,64.28571
144933,64.28571
144967,64.28571
145000,63.905330000000006
145033,63.905330000000006
145067,63.905330000000006
145100,63.905330000000006
145133,63.905330000000006
145167,63.905330000000006
145200,63.905330000000006
145233,63.905330000000006
145267,63.905330000000006
145300,63.905330000000006
145333,63.905330000000006
145367,63.905330000000006
145400,63.905330000000006
145433,63.905330000000006
145467,63.905330000000006
145500,63.905330000000006
145533,73.17073
145567,73.17073
145600,73.17073
145633,73.17073
145667,73.17073
145700,73.17073
145733,73.77049
145767,73.77049
145800,74.38016999999998
145833,74.38016999999998
145867,74.38016999999998
145900,74.38016999999998
145933,74.38016999999998
145967,74.38016999999998
146000,74.38016999999998
146033,74.38016999999998
146067,75.0
146100,75.0
146133,75.0
146167,75.0
146200,75.0
146233,75.0
146267,75.0
146300,75.0
146333,75.0
146367,75.0
146400,58.37838000000001
146433,58.37838000000001
146467,57.75401
146500,57.75401
146533,57.75401
146567,57.75401
146600,57.75401
146633,57.75401
146667,57.75401
146700,57.75401
146733,57.75401
146767,57.75401
146800,57.75401
146833,57.75401
146867,57.75401
146900,57.75401
146933,57.75401
146967,57.75401
147000,57.75401
147033,57.75401
147067,55.21473
147100,55.21473
147133,59.01639
147167,59.01639
147200,59.01639
147233,59.01639
147267,59.01639
147300,59.01639
147333,59.01639
147367,59.01639
147400,59.01639
147433,59.01639
147467,59.01639
147500,59.01639
147533,59.01639
147567,59.01639
147600,59.01639
147633,59.01639
147667,59.01639
147700,59.01639
147733,59.01639
147767,59.01639
147800,59.01639
147833,59.01639
147867,55.55556
147900,58.37838000000001
147933,58.37838000000001
147967,58.37838000000001
148000,58.37838000000001
148033,58.37838000000001
148067,58.37838000000001
148100,58.37838000000001
148133,58.37838000000001
148167,58.37838000000001
148200,58.37838000000001
148233,58.37838000000001
148267,58.37838000000001
148300,58.37838000000001
148333,58.37838000000001
148367,58.37838000000001
148400,58.37838000000001
148433,58.37838000000001
148467,58.37838000000001
148500,58.37838000000001
148533,58.37838000000001
148567,55.21473
148600,58.69565
148633,58.69565
148667,58.69565
148700,58.69565
148733,58.69565
148767,58.69565
148800,58.69565
148833,58.69565
148867,58.69565
148900,58.69565
148933,58.69565
148967,58.69565
149000,58.69565
149033,58.69565
149067,58.69565
149100,58.69565
149133,58.69565
149167,58.69565
149200,58.69565
149233,58.69565
149267,58.69565
149300,56.25
149333,56.25
149367,56.25
149400,56.25
149433,56.25
149467,56.25
149500,56.25
149533,56.25
149567,56.25
149600,58.37838000000001
149633,58.37838000000001
149667,58.37838000000001
149700,58.37838000000001
149733,58.37838000000001
149767,58.37838000000001
149800,58.37838000000001
149833,58.37838000000001
149867,58.37838000000001
149900,58.37838000000001
149933,58.37838000000001
149967,58.37838000000001
150000,58.37838000000001
150033,58.37838000000001
150067,58.37838000000001
150100,56.60378000000001
150133,56.60378000000001
150167,56.60378000000001
150200,56.60378000000001
150233,56.60378000000001
150267,56.60378000000001
150300,56.60378000000001
150333,56.60378000000001
150367,62.06896999999999
150400,62.06896999999999
150433,62.06896999999999
150467,62.06896999999999
150500,62.06896999999999
150533,62.06896999999999
150567,62.06896999999999
150600,62.06896999999999
150633,62.06896999999999
150667,61.36364
150700,61.36364
150733,61.36364
150767,61.36364
150800,61.36364
150833,61.36364
150867,61.36364
150900,63.0
150933,72.0
150967,80.76923000000002
151000,79.55801
151033,79.55801
151067,79.55801
151100,79.55801
151133,79.55801
151167,79.55801
151200,79.55801
151233,79.55801
151267,79.55801
151300,79.55801
151333,82.23351
151367,82.23351
151400,82.23351
151433,82.23351
151467,82.23351
151500,82.23351
151533,82.23351
151567,82.23351
151600,83.72093000000002
151633,83.72093000000002
151667,83.72093000000002
151700,83.72093000000002
151733,83.72093000000002
151767,83.72093000000002
151800,83.72093000000002
151833,83.72093000000002
151867,83.72093000000002
151900,83.72093000000002
151933,85.26316
151967,85.26316
152000,85.26316
152033,85.26316
152067,85.26316
152100,85.26316
152133,85.26316
152167,85.26316
152200,85.26316
152233,85.26316
152267,85.26316
152300,85.26316
152333,84.81676
152367,84.81676
152400,85.26316
152433,86.74699
152467,86.74699
152500,86.74699
152533,86.74699
152567,86.74699
152600,86.74699
152633,86.74699
152667,86.74699
152700,86.74699
152733,86.74699
152767,84.81676
152800,84.81676
152833,84.81676
152867,84.81676
152900,84.81676
152933,84.81676
152967,84.81676
153000,84.81676
153033,84.81676
153067,84.81676
153100,84.81676
153133,84.81676
153167,84.81676
153200,84.81676
153233,85.2071
153267,85.2071
153300,85.2071
153333,85.2071
153367,85.2071
153400,85.2071
153433,85.2071
153467,85.2071
153500,85.2071
153533,85.2071
153567,83.93782
153600,83.93782
153633,85.2071
153667,85.2071
153700,85.2071
153733,81.81818
153767,81.81818
153800,81.81818
153833,81.81818
153867,81.81818
153900,81.81818
153933,81.81818
153967,82.28571
154000,82.28571
154033,82.28571
154067,82.28571
154100,82.28571
154133,82.28571
154167,82.28571
154200,82.28571
154233,75.78947
154267,75.78947
154300,75.78947
154333,75.78947
154367,75.78947
154400,75.78947
154433,75.78947
154467,75.78947
154500,75.78947
154533,75.78947
154567,75.78947
154600,75.78947
154633,75.78947
154667,75.78947
154700,75.78947
154733,75.0
154767,75.0
154800,75.0
154833,75.0
154867,75.0
154900,75.0
154933,75.0
154967,75.0
155000,75.0
155033,75.0
155067,75.0
155100,75.0
155133,75.0
155167,75.0
155200,75.0
155233,75.0
155267,75.0
155300,75.0
155333,75.0
155367,75.0
155400,75.0
155433,75.0
155467,75.0
155500,75.0
155533,75.0
155567,75.0
155600,75.0
155633,75.0
155667,75.0
155700,75.0
155733,75.0
155767,75.0
155800,75.0
155833,75.0
155867,75.0
155900,75.0
155933,75.0
155967,75.0
156000,75.0
156033,75.0
156067,75.0
156100,75.0
156133,75.0
156167,75.0
156200,75.0
156233,75.0
156267,72.83237
156300,72.83237
156333,72.83237
156367,72.83237
156400,72.83237
156433,72.83237
156467,72.83237
156500,72.83237
156533,72.83237
156567,72.83237
156600,73.46939
156633,73.46939
156667,73.46939
156700,73.46939
156733,73.46939
156767,73.46939
156800,73.46939
156833,73.46939
156867,73.46939
156900,72.4138
156933,72.4138
156967,72.4138
157000,72.4138
157033,72.4138
157067,72.4138
157100,72.4138
157133,72.4138
157167,72.4138
157200,72.4138
157233,72.4138
157267,72.4138
157300,72.4138
157333,72.4138
157367,72.4138
157400,72.4138
157433,72.36180999999998
157467,72.36180999999998
157500,72.36180999999998
157533,72.36180999999998
157567,72.36180999999998
157600,72.36180999999998
157633,76.36364
157667,76.36364
157700,76.36364
157733,76.36364
157767,76.36364
157800,76.36364
157833,76.36364
157867,76.36364
157900,76.36364
157933,76.36364
157967,76.36364
158000,76.36364
158033,76.36364
158067,76.36364
158100,76.36364
158133,76.36364
158167,76.36364
158200,76.59574
158233,76.59574
158267,76.59574
158300,76.59574
158333,76.59574
158367,76.59574
158400,76.59574
158433,76.59574
158467,76.59574
158500,76.59574
158533,76.59574
158567,76.59574
158600,76.59574
158633,76.59574
158667,76.59574
158700,76.59574
158733,76.59574
158767,77.30060999999998
158800,77.30060999999998
158833,77.30060999999998
158867,77.30060999999998
158900,77.30060999999998
158933,77.83784
158967,77.83784
159000,77.83784
159033,77.83784
159067,77.83784
159100,77.83784
159133,77.83784
159167,77.83784
159200,77.83784
159233,77.83784
159267,77.83784
159300,77.83784
159333,77.83784
159367,77.83784
159400,77.83784
159433,77.83784
159467,77.83784
159500,77.83784
159533,77.83784
159567,77.83784
159600,80.76923000000002
159633,80.76923000000002
159667,80.76923000000002
159700,80.76923000000002
159733,80.76923000000002
159767,80.76923000000002
159800,79.12088
159833,79.12088
159867,79.12088
159900,79.12088
159933,79.12088
159967,79.12088
160000,79.12088
160033,79.12088
160067,79.12088
160100,79.12088
160133,79.12088
160167,79.12088
160200,79.12088
160233,79.12088
160267,79.12088
160300,79.12088
160333,79.12088
160367,79.12088
160400,79.12088
160433,79.12088
160467,80.19802
160500,79.12088
160533,79.12088
160567,75.4491
160600,75.4491
160633,75.0
160667,75.0
160700,75.0
160733,75.0
160767,75.0
160800,75.0
160833,75.0
160867,75.0
160900,75.0
160933,75.0
160967,75.0
161000,75.0
161033,75.0
161067,75.0
161100,75.0
161133,75.0
161167,75.0
161200,75.0
161233,75.0
161267,75.0
161300,75.0
161333,75.0
161367,75.0
161400,75.39267
161433,75.39267
161467,75.39267
161500,75.39267
161533,75.39267
161567,75.39267
161600,75.39267
161633,75.39267
161667,75.39267
161700,75.39267
161733,75.39267
161767,75.39267
161800,75.39267
161833,75.39267
161867,75.4491
161900,75.4491
161933,75.4491
161967,75.4491
162000,75.4491
162033,75.4491
162067,75.4491
162100,75.4491
162133,75.4491
162167,75.4491
162200,75.4491
162233,75.0
162267,75.0
162300,75.0
162333,75.0
162367,75.0
162400,75.0
162433,75.0
162467,75.0
162500,75.0
162533,75.0
162567,75.0
162600,75.0
162633,75.0
162667,74.55621
162700,74.55621
162733,74.55621
162767,74.55621
162800,74.55621
162833,74.55621
162867,74.55621
162900,74.55621
162933,74.55621
162967,74.55621
163000,74.55621
163033,74.55621
163067,74.55621
163100,74.55621
163133,74.55621
163167,74.55621
163200,74.55621
163233,74.55621
163267,77.41936
163300,77.41936
163333,77.41936
163367,77.41936
163400,77.41936
163433,78.26087
163467,78.26087
163500,78.26087
163533,78.26087
163567,78.26087
163600,77.83784
163633,77.83784
163667,77.83784
163700,77.83784
163733,77.83784
163767,77.83784
163800,77.83784
163833,77.83784
163867,77.83784
163900,77.83784
163933,77.83784
163967,77.83784
164000,77.83784
164033,77.83784
164067,77.83784
164100,77.83784
164133,77.83784
164167,77.83784
164200,77.83784
164233,77.83784
164267,77.77778
164300,78.68852
164333,78.68852
164367,78.68852
164400,78.68852
164433,78.68852
164467,78.68852
164500,78.68852
164533,78.68852
164567,78.68852
164600,78.68852
164633,78.68852
164667,78.68852
164700,78.68852
164733,78.68852
164767,78.68852
164800,78.68852
164833,78.68852
164867,78.68852
164900,78.68852
164933,78.68852
164967,78.68852
165000,78.68852
165033,78.26087
165067,78.26087
165100,78.26087
165133,78.26087
165167,77.00535
165200,77.00535
165233,77.00535
165267,77.00535
165300,77.00535
165333,77.00535
165367,77.00535
165400,77.00535
165433,77.00535
165467,77.00535
165500,77.00535
165533,77.00535
165567,77.00535
165600,77.00535
165633,77.00535
165667,77.00535
165700,79.80296
165733,79.80296
165767,81.35593
165800,81.35593
165833,81.35593
165867,81.35593
165900,81.35593
165933,81.35593
165967,81.35593
166000,81.35593
166033,81.35593
166067,81.35593
166100,81.35593
166133,81.35593
166167,81.35593
166200,81.35593
166233,86.63101999999998
166267,86.63101999999998
166300,86.63101999999998
166333,86.63101999999998
166367,86.63101999999998
166400,86.63101999999998
166433,86.63101999999998
166467,86.63101999999998
166500,86.63101999999998
166533,86.63101999999998
166567,86.63101999999998
166600,86.63101999999998
166633,88.88889
166667,88.88889
166700,88.88889
166733,89.01099
166767,89.01099
166800,89.01099
166833,89.01099
166867,89.01099
166900,89.01099
166933,89.01099
166967,94.73684
167000,94.73684
167033,94.73684
167067,94.73684
167100,94.73684
167133,94.73684
167167,94.73684
167200,94.73684
167233,85.26316
167267,85.26316
167300,85.26316
167333,85.26316
167367,85.26316
167400,85.26316
167433,85.26316
167467,86.22755
167500,86.22755
167533,88.04348
167567,88.04348
167600,88.04348
167633,88.04348
167667,88.04348
167700,88.04348
167733,88.04348
167767,88.04348
167800,88.04348
167833,88.04348
167867,88.04348
167900,88.04348
167933,88.04348
167967,88.04348
168000,88.04348
168033,88.04348
168067,88.04348
168100,88.04348
168133,88.04348
168167,88.04348
168200,88.04348
168233,90.0
168267,90.0
168300,88.52459
168333,88.52459
168367,88.52459
168400,88.52459
168433,88.52459
168467,88.52459
168500,88.52459
168533,88.52459
168567,88.52459
168600,88.52459
168633,88.52459
168667,88.52459
168700,88.52459
168733,88.52459
168767,88.52459
168800,88.52459
168833,88.52459
168867,88.52459
168900,88.52459
168933,88.52459
168967,88.52459
169000,88.52459
169033,87.27273000000002
169067,87.27273000000002
169100,87.27273000000002
169133,87.27273000000002
169167,87.27273000000002
169200,84.375
169233,84.375
169267,84.375
169300,84.375
169333,84.375
169367,84.375
169400,84.375
169433,84.375
169467,84.375
169500,84.375
169533,84.375
169567,84.375
169600,84.375
169633,85.71429
169667,85.71429
169700,85.71429
169733,85.71429
169767,85.71429
169800,85.71429
169833,85.71429
169867,85.71429
169900,85.71429
169933,85.71429
169967,85.71429
170000,85.71429
170033,85.71429
170067,85.71429
170100,85.71429
170133,85.71429
170167,85.71429
170200,85.71429
170233,85.71429
170267,85.71429
170300,85.71429
170333,85.71429
170367,85.71429
170400,85.71429
170433,85.71429
170467,85.71429
170500,85.71429
170533,85.71429
170567,85.71429
170600,75.0
170633,75.0
170667,75.0
170700,75.0
170733,75.0
170767,75.0
170800,75.0
170833,74.6114
170867,74.6114
170900,74.6114
170933,74.6114
170967,74.6114
171000,74.6114
171033,74.6114
171067,74.6114
171100,74.6114
171133,75.4491
171167,75.4491
171200,75.4491
171233,75.4491
171267,75.4491
171300,75.4491
171333,75.4491
171367,75.4491
171400,75.4491
171433,75.4491
171467,75.4491
171500,75.4491
171533,75.4491
171567,75.4491
171600,75.4491
171633,75.4491
171667,75.4491
171700,75.4491
171733,75.78947
171767,75.78947
171800,75.78947
171833,75.78947
171867,75.78947
171900,75.78947
171933,75.78947
171967,75.78947
172000,72.4138
172033,72.4138
172067,72.4138
172100,72.4138
172133,72.4138
172167,72.4138
172200,72.4138
172233,72.4138
172267,72.4138
172300,72.72726999999998
172333,72.72726999999998
172367,72.72726999999998
172400,72.72726999999998
172433,72.72726999999998
172467,72.72726999999998
172500,72.72726999999998
172533,78.75
172567,78.75
172600,78.75
172633,78.75
172667,78.75
172700,78.75
172733,78.75
172767,78.75
172800,78.75
172833,78.75
172867,78.75
172900,78.75
172933,78.75
172967,78.75
173000,78.75
173033,78.75
173067,78.75
173100,78.26087
173133,78.26087
173167,78.26087
173200,78.26087
173233,78.26087
173267,78.26087
173300,78.26087
173333,78.26087
173367,78.26087
173400,78.26087
173433,78.26087
173467,78.26087
173500,78.26087
173533,78.26087
173567,78.26087
173600,78.26087
173633,78.26087
173667,78.26087
173700,78.26087
173733,78.26087
173767,78.26087
173800,78.26087
173833,78.26087
173867,78.26087
173900,78.26087
173933,78.26087
173967,78.26087
174000,78.26087
174033,78.26087
174067,78.26087
174100,78.26087
174133,78.26087
174167,78.26087
174200,78.26087
174233,78.26087
174267,78.26087
174300,78.26087
174333,78.26087
174367,78.26087
174400,78.26087
174433,78.26087
174467,78.26087
174500,78.26087
174533,78.26087
174567,78.26087
174600,78.26087
174633,78.26087
174667,78.26087
174700,78.26087
174733,78.26087
174767,78.26087
174800,78.26087
174833,78.26087
174867,78.26087
174900,78.26087
174933,78.26087
174967,78.26087
175000,78.26087
175033,78.26087
175067,78.26087
175100,78.26087
175133,78.26087
175167,78.26087
175200,78.26087
175233,78.26087
175267,78.26087
175300,78.26087
175333,78.26087
175367,78.26087
175400,78.26087
175433,78.26087
175467,78.26087
175500,78.26087
175533,78.26087
175567,78.26087
175600,78.26087
175633,78.26087
175667,78.26087
175700,78.26087
175733,78.26087
175767,78.26087
175800,78.26087
175833,78.26087
175867,78.26087
175900,78.26087
175933,78.26087
175967,78.26087
176000,78.26087
176033,78.26087
176067,78.26087
176100,78.26087
176133,78.26087
176167,78.26087
176200,78.26087
176233,78.26087
176267,78.26087
176300,78.26087
176333,78.26087
176367,78.26087
176400,78.26087
176433,78.26087
176467,78.26087
176500,78.26087
176533,78.26087
176567,78.26087
176600,78.26087
176633,78.26087
176667,78.26087
176700,78.26087
176733,78.26087
176767,78.26087
176800,78.26087
176833,78.26087
176867,78.26087
176900,78.26087
176933,78.26087
176967,78.26087
177000,78.26087
177033,78.26087
177067,78.26087
177100,78.26087
177133,78.26087
177167,78.26087
177200,78.26087
177233,78.26087
177267,78.26087
177300,78.26087
177333,78.26087
177367,78.26087
177400,78.26087
177433,78.26087
177467,78.26087
177500,78.26087
177533,78.26087
177567,78.26087
177600,78.26087
177633,78.26087
177667,78.26087
177700,78.26087
177733,78.26087
177767,78.26087
177800,78.26087
177833,78.26087
177867,78.26087
177900,78.26087
177933,78.26087
177967,78.26087
178000,78.26087
178033,78.26087
178067,78.26087
178100,78.26087
178133,78.26087
178167,78.26087
178200,78.26087
178233,78.26087
178267,78.26087
178300,78.26087
178333,78.26087
178367,78.26087
178400,78.26087
178433,78.26087
178467,78.26087
178500,78.26087
178533,78.26087
178567,78.26087
178600,78.26087
178633,78.26087
178667,78.26087
178700,78.26087
178733,78.26087
178767,78.26087
178800,78.26087
178833,78.26087
178867,78.26087
178900,78.26087
178933,78.26087
178967,78.26087
179000,78.26087
179033,78.26087
179067,78.26087
179100,78.26087
179133,78.26087
179167,78.26087
179200,78.26087
179233,78.26087
179267,78.26087
179300,78.26087
179333,78.26087
179367,78.26087
179400,78.26087
179433,78.26087
179467,78.26087
179500,78.26087
179533,78.26087
179567,78.26087
179600,78.26087
179633,78.26087
179667,78.26087
179700,78.26087
179733,78.26087
179767,78.26087
179800,78.26087
179833,78.26087
179867,78.26087
179900,78.26087
179933,78.26087
179967,78.26087
180000,78.26087
180033,78.26087
180067,78.26087
180100,78.26087
180133,78.26087
