B,G,R,Time[ms]
95.97173819346098,87.04288529031462,65.69570839234035,0.0
96.20888492087923,87.06252693799642,65.95495966997106,33.333333333333336
95.88360283513852,86.82395446595686,65.62211960357153,66.66666666666667
96.04490179176159,86.94410750569546,65.70853087864047,100.0
96.37882519549288,87.03999137984114,66.09879317775999,133.33333333333334
96.08717135644356,86.98391416784679,65.81231143402499,166.66666666666666
96.4168524712003,86.95817849622198,66.01752756100582,200.0
95.96015432098768,86.76858024691359,65.64611111111111,233.33333333333331
96.3038095238095,86.98529953917051,66.10317972350231,266.6666666666667
96.15602369980247,86.86862531959521,66.06644518272425,300.0
96.23932987634623,87.07910159246418,66.0092510202203,333.3333333333333
96.58399082568808,86.80044342507645,66.42912844036698,366.6666666666666
96.03030441400304,86.59855403348554,65.9372298325723,400.0
96.61367834492953,86.94586232374853,66.26490056031031,433.33333333333337
96.25000767082935,86.74499094842135,66.0359608480869,466.66666666666674
96.23865484336166,86.72992543953852,66.01169034395998,500.0
96.4232372749347,86.72315633542554,66.31300682640766,533.3333333333334
96.2333806753104,86.6867793711153,66.09078969472061,566.6666666666666
96.48466182464529,86.7738346970672,66.21050534767552,600.0
96.24853666758604,86.65247770524961,65.937819864546,633.3333333333333
96.19149162861493,86.55724505327245,66.00327245053272,666.6666666666666
96.25529680365295,86.58235920852358,66.01750380517504,700.0
96.10096058398621,86.46419572089614,65.72979948381972,733.3333333333333
96.23254185692541,86.48952815829527,65.92383561643835,766.6666666666667
95.89821678109242,86.27541162889605,65.64242967373474,800.0
96.54169724770641,86.25671253822632,66.27175840978593,833.3333333333335
95.89996647261421,86.0890609284038,65.81035691426133,866.6666666666667
95.93119266055048,86.10782102471882,65.83365844737725,900.0
96.19296534487488,86.24368313572495,66.02572464872443,933.3333333333336
95.77901667197621,86.15321834372487,65.81389280783992,966.6666666666664
96.04179371653088,86.28729197955064,66.00543090762906,1000.0
95.38502402483064,86.26072164025427,65.66227952368162,1033.3333333333335
95.5831951436186,86.28917678412792,65.92743559372224,1066.6666666666667
95.66437666567957,86.2945513769618,66.01264435889843,1100.0
95.45608555322536,86.23732393318757,65.67425222732885,1133.3333333333333
95.74553078461216,86.3199480705524,65.83578058316172,1166.6666666666667
95.7100283679382,86.29475494929984,65.5547440849831,1200.0
95.92558880076905,86.28077685652487,65.74324080749821,1233.3333333333335
95.85024940850248,86.21462694214627,65.53894841538948,1266.6666666666665
95.95008629303295,86.22495231174494,65.55327459351439,1300.0
96.17417567444818,86.10841129984556,65.79179156447755,1333.3333333333333
95.56350864444242,86.02555484906289,65.20253126230054,1366.6666666666667
95.89741175041011,86.17087915426211,65.44726289568018,1400.0
95.9345453991283,86.26238227315676,65.34949251729708,1433.333333333333
96.1689627846018,86.34790758633301,65.56973696241884,1466.6666666666665
96.01411082082753,86.25039492071207,65.49851145270065,1500.0
95.87581151513304,86.2422963211314,65.30445914230852,1533.3333333333335
96.2259021406728,86.40743119266054,65.60391437308868,1566.666666666667
96.11347094801224,86.33640672782877,65.39974006116208,1600.0
96.24955042823616,86.34382334115641,65.63244841354506,1633.333333333333
95.78927394236294,86.13325168586893,65.32026973903051,1666.666666666667
95.85509447718573,86.16206938453126,65.29827146242178,1700.0
96.20665061416076,86.39620226157456,65.66312597153221,1733.3333333333335
96.11914373088686,86.39544342507645,65.48223241590215,1766.6666666666665
96.21128961300992,86.31849694321821,66.11755336094298,1800.0
95.70646773751105,86.19916791124388,65.55545734402146,1833.333333333333
95.89556219330065,86.2422658416898,65.79523911121949,1866.666666666667
95.91351458441281,86.22312475235455,65.85415587186444,1900.0
95.70331804281344,86.20399082568808,65.58720183486238,1933.333333333333
96.05874039938557,86.3200307219662,65.78832565284178,1966.6666666666665
95.9216129032258,86.24775729646696,65.62708141321045,2000.0
96.11399385560676,86.33396313364055,65.77362519201229,2033.333333333333
96.01411771958756,86.33924140375755,65.57489635189495,2066.666666666667
96.01878766394896,86.33161228673148,65.59534855046776,2100.0
96.55668965945812,86.4983376833209,65.79426112353964,2133.333333333333
96.3269096494903,86.45980542754738,65.57417492901364,2166.6666666666665
96.69064097767807,86.59330963960596,65.79501808205512,2200.0
95.90834101382488,86.15863287250386,65.3521198156682,2233.333333333333
96.4288325652842,86.09116743471583,65.74019969278034,2266.6666666666665
96.43459293394777,86.12611367127495,65.71993855606759,2300.0
96.03390168970812,85.97850998463902,65.06860215053763,2333.333333333333
96.21405529953917,86.09221198156679,65.23027649769585,2366.6666666666665
96.25029668788434,86.13454988209547,65.04272305534577,2400.0
96.32096774193548,86.1547311827957,65.2510752688172,2433.333333333333
96.24636653668912,86.30248293081392,65.12499422036589,2466.666666666667
96.24249803492441,86.29584020467611,65.14905291062374,2500.0
96.2568509984639,86.30863287250385,65.41970814132104,2533.333333333333
95.78153860221279,86.13188454387516,65.10340150568442,2566.666666666667
95.72279394012554,86.21188435538387,65.2889455577016,2600.0
95.45156742663107,86.04696216347321,64.89720773708464,2633.333333333333
95.58822459374242,86.02222289594955,65.05681542566093,2666.6666666666665
95.61393402861994,86.04289958767887,65.08258549599806,2700.0
95.12904736722822,85.74019793004456,64.71819898768604,2733.333333333333
95.47631638588804,85.57260708619778,65.25653849059455,2766.666666666666
94.95195285940923,85.39342751378713,64.79936541512427,2800.0
95.34581918505943,85.62586405529953,65.03439546446762,2833.333333333333
95.03544609805849,85.4964115736194,64.66175115207372,2866.666666666666
94.94518237402487,85.4684497454896,64.68109394295352,2900.0
95.55981409946884,85.8904514727185,65.23702317720908,2933.333333333333
95.49954523405287,86.04605263157896,65.12839558573853,2966.666666666667
95.7905450265572,86.16029394012554,65.53976038145825,3000.0
95.6624215354901,86.20105021728634,65.35659101883147,3033.333333333333
95.78342690321129,86.188307508047,65.65385133617785,3066.666666666667
95.78889138408563,86.21482146867281,65.66302866981061,3100.0
95.51156564896976,86.07386073093699,65.29550308317039,3133.333333333333
95.6731404710406,86.1057888728671,65.55240627253063,3166.666666666666
95.80964517058815,86.38002700283681,65.45179690225882,3200.0
96.05306512538117,86.33706518606171,65.77382848647582,3233.333333333333
95.43227121715496,86.23190878888553,65.08370582905467,3266.666666666666
95.44412564180008,86.19456357595892,65.09779522802779,3300.0
95.5993831080468,86.21908736278691,65.26361547068251,3333.333333333333
95.32943020329432,86.10928764109288,65.07976551079766,3366.666666666666
95.7745545152522,86.33319238900634,65.59207188160677,3400.0
95.57232089102949,86.2580674292595,65.50174593618303,3433.333333333333
95.85730897009968,86.3764119601329,65.7237994563576,3466.666666666667
95.90468136514649,86.36165810933254,65.73770764119601,3500.0
95.6631531259438,86.28578979160378,65.48275445484748,3533.333333333333
95.85650860767142,86.38785865297493,65.74700996677741,3566.666666666667
95.87467275494673,86.49299847792999,65.59975646879757,3600.0
96.23543378995431,86.6302891933029,65.90155251141552,3633.333333333334
96.0286818181818,86.56131818181818,65.78965151515152,3666.666666666666
96.12362252663624,86.60751902587519,65.7944901065449,3700.0
96.64506849315069,86.58783866057838,66.5769101978691,3733.333333333334
96.39159081854677,86.5372038858754,66.11328184854892,3766.666666666666
96.62311911985536,86.77404921700224,66.37415341239925,3800.0
96.58937933367157,86.83995203173285,66.21744076995218,3833.333333333334
96.8681462947518,87.0105180242795,66.42461310351219,3866.666666666666
96.89733728724556,87.0254996447657,66.44342507645261,3900.0
96.63935996046094,86.98810737342848,66.21866987922034,3933.333333333333
96.84425687622034,87.10531494549757,66.4413849299694,3966.666666666667
96.42281582952816,86.89879756468798,66.18226788432267,4000.0
96.58407106475869,86.9700157652195,66.37448459859326,4033.333333333333
96.5499588000122,86.98002563554796,66.1667378765221,4066.666666666666
96.3830664172408,86.85534820763182,66.09072105367218,4100.0
96.3379707870594,86.8886407532593,66.34288990825688,4133.333333333334
96.27484962634425,86.84004192235253,66.10149462300261,4166.666666666667
96.53831265811209,86.69003931847969,66.38384284799903,4200.0
95.93677039836628,86.5465421073486,65.78932609954586,4233.333333333333
96.12472187509523,86.5930080160932,66.00950958578439,4266.666666666667
96.24434680098595,86.63611310991013,66.06303106388843,4300.0
96.05549923195083,86.65955453149002,65.78347158218125,4333.333333333333
96.16860856269112,86.69773700305811,66.0769877675841,4366.666666666666
96.02545314900154,86.64294930875576,65.80703533026114,4400.0
96.34294743947716,86.88949403209475,66.17627565892424,4433.333333333334
95.91461773700308,86.67249235474007,65.85683486238533,4466.666666666667
96.09109876959896,86.77062686017612,65.90520389064466,4500.0
96.3467828541622,86.9473320855451,66.16668712221166,4533.333333333333
95.93624048706239,86.78094368340946,65.87721461187215,4566.666666666666
96.24753424657534,86.95841704718418,66.19870624048706,4600.0
96.1166818873668,86.90966514459663,65.96319634703195,4633.333333333334
96.51564687975643,86.86092846270927,66.65292237442921,4666.666666666667
96.56238964992387,86.87348554033484,66.6775799086758,4700.0
96.02365023741258,86.74409502571336,66.21289764711237,4733.333333333333
96.24610506834145,86.89892140354071,66.49575994781475,4766.666666666667
96.36950844854073,86.97995391705071,66.3131029185868,4800.0
96.4559208523592,87.03651445966514,66.56835616438356,4833.333333333333
96.2111415525114,86.99715372907153,66.17726027397259,4866.666666666666
96.19063926940642,86.98401826484016,66.16047184170472,4900.0
96.50972477064221,87.05496941896023,66.37614678899084,4933.333333333334
96.3406331607642,86.99567813564241,66.24894244131886,4966.666666666667
96.49515981735159,86.9869101978691,66.41805175038051,5000.0
96.24587519025872,86.85144596651445,66.19488584474885,5033.333333333333
96.2409090909091,86.81073693748112,66.33417396556932,5066.666666666666
96.27807308970101,86.84747810329206,66.37903956508607,5100.0
96.23220183486241,86.89415902140672,66.09399082568808,5133.333333333334
96.5319786910198,86.80595129375948,66.53946727549467,5166.666666666667
96.18700009193712,86.9704575403757,66.01878581716772,5200.0
96.45530323925102,87.10186632343478,66.31007324323495,5233.333333333333
96.49261129240809,87.14968290129917,66.15925743488701,5266.666666666667
96.50963610615109,87.11671079367035,66.11138476694784,5300.0
96.76283787944092,87.21308724832214,66.3817344991072,5333.333333333333
96.31251813503157,87.06905820008858,66.07678563247353,5366.666666666666
96.47865793130829,87.14761533880056,66.30465325819704,5400.0
96.30390291798349,87.04110030376484,65.95052315056304,5433.333333333334
96.50726164841707,87.159114857745,66.22330141567784,5466.666666666667
96.55697072433223,87.18225134008337,66.29093935645453,5500.0
96.44002076938351,87.14396542508514,66.02735144545746,5533.333333333332
96.64432430781449,87.24200913242011,66.24814831783266,5566.666666666666
96.35851621080923,87.12272262182924,65.97513782623967,5600.0
96.54981436592924,86.90359301647696,66.22733269921143,5633.333333333334
95.7827003252852,86.7597929170294,65.49298269727096,5666.666666666668
95.9503233121878,86.85596518647911,65.56584229720204,5700.0
96.17961447703104,86.8765591002421,65.87263645000154,5733.333333333332
95.71387878787878,86.70319696969696,65.69486363636364,5766.666666666668
95.90186440935088,86.62200579499083,65.99297622840153,5800.0
95.39616195063215,86.36636062612885,65.66903973509933,5833.333333333332
95.67271462699206,86.44887961534971,65.93044845625812,5866.666666666666
95.76115092684992,86.43837128428439,65.97295049744473,5900.0
95.41848284166164,86.36065623118603,65.70075255869958,5933.333333333334
95.73354906682721,86.50158037326912,66.0323449729079,5966.666666666668
95.75566983722449,86.58206283469107,65.8403191795992,6000.0
95.92547400889048,86.60012398318666,66.11779914723759,6033.333333333332
95.64586092715231,86.53815472606865,65.92940999397953,6066.666666666666
95.72666454284806,86.53333636735996,65.8961756094601,6100.0
96.2759696969697,86.75618181818182,66.58754545454545,6133.333333333334
95.81783333333333,86.77092424242424,66.20210606060606,6166.666666666668
96.0220395738204,86.8939421613394,66.29596651445966,6200.0
95.92188736681886,86.88689497716896,66.09634703196346,6233.333333333332
96.00238171088759,86.87116006007373,66.24913909494987,6266.666666666668
95.9066043726753,86.8706190087393,66.24027034382654,6300.0
95.7496928048059,86.78479649266524,65.82517938682321,6333.333333333332
95.86548517865484,86.85312777853126,66.0529710505297,6366.666666666666
95.8376388218252,86.86166103331725,65.99388882182521,6400.0
96.04702279893282,86.87336284259035,66.13783955857386,6433.333333333334
95.84547491446392,86.80320646743574,65.81450025736518,6466.666666666668
95.82135828261723,86.77866593998849,65.76864383686075,6500.0
96.05654960811714,86.75811106385565,65.94351114891549,6533.333333333332
95.88372093023256,86.7834463508245,65.78837664406316,6566.666666666666
96.17668932305159,86.50592825139444,66.08104483525862,6600.0
95.60856505711556,86.4122938758173,65.58374671945872,6633.333333333334
96.10828006088279,86.6420395738204,65.97681887366818,6666.666666666668
96.13697108066972,86.64993911719938,66.0013394216134,6700.0
95.96380303030304,86.6675909090909,65.8574696969697,6733.333333333332
96.01377227423741,86.69142253095741,65.9955602536998,6766.666666666668
95.912428269405,86.6948051948052,65.81360616128059,6800.0
96.17311990335249,86.86354575656902,66.12778616732105,6833.333333333332
95.9150042843613,86.8458682220652,65.97823243787676,6866.666666666666
96.0243430987617,86.81073693748112,66.01443672606463,6900.0
96.30297493204469,86.93749622470553,66.24562065841135,6933.333333333334
95.94346888016541,86.81925923706211,65.96690240028768,6966.666666666668
96.3901389308366,87.00533071579584,66.25806402899427,7000.0
96.07728782845062,86.84373301117488,65.87012987012987,7033.333333333332
95.61822712171549,86.36277559649652,65.78868921775899,7066.666666666666
95.61464814255513,86.37490184234372,65.7884929024464,7100.0
95.5674691667046,86.3639618319453,65.60594062409929,7133.333333333334
95.50829603508295,86.32118691321187,65.70771734707718,7166.666666666668
95.31960696069609,86.3534503450345,65.68582358235824,7200.0
95.6032671760327,86.42191479421915,65.84744638847447,7233.333333333332
95.54648341546483,86.46531639465317,65.75898548758985,7266.666666666668
95.34961974891355,86.30223925639788,65.59219579913085,7300.0
95.92138039978128,86.59745428033294,65.99693176985237,7333.333333333332
95.752984723676,86.57337034845794,65.77874360958145,7366.666666666666
96.21016819571872,86.72081039755352,66.04389908256881,7400.0
95.8597247706422,86.60672782874619,65.74874617737004,7433.333333333334
95.96926786095769,86.46398815881832,66.0745414593951,7466.666666666668
95.9724417859432,86.47894222846158,66.09785760063478,7500.0
95.55230872524186,86.3773613696707,65.67543565172275,7533.333333333332
96.01638053713629,86.44091198110638,66.44708874557179,7566.666666666666
95.76076409484268,86.48989368982981,66.03043299721678,7600.0
95.69390195900324,86.34473309716293,66.07540799951555,7633.333333333334
95.57620471816156,86.31919309060946,65.80974761192664,7666.666666666668
95.56567583239234,86.31301309244057,65.81356242561114,7700.0
95.72566911832024,86.3182470168157,66.0003204443495,7733.333333333332
95.2221217873392,86.21510138901444,65.64390310042484,7766.666666666668
95.39396396396393,86.17304804804805,65.80621621621621,7800.0
95.56943827793684,86.11124209623834,65.53003046680037,7833.333333333332
95.50331474271285,86.19360803355332,65.8564663790382,7866.666666666666
95.55015709324871,86.19721591677816,65.88436734264367,7900.0
95.35128756332588,86.08523624118698,65.56748996557478,7933.333333333334
95.55771861517417,86.1430225041716,65.71685633108342,7966.666666666668
95.29024872048129,86.10264583520397,65.4896740594415,8000.0
95.59453088165961,85.91006980882419,65.78511353439491,8033.333333333332
95.25646314631464,85.85898728761765,65.37833088864443,8066.666666666666
95.19370860927151,85.7996688741722,65.25502820701496,8100.0
95.75274961597542,86.1363748079877,65.70500768049155,8133.333333333332
95.52107333085594,85.92592592592592,65.26422953053388,8166.666666666666
95.58093815721294,85.89518120028042,65.66557956658235,8200.0
95.58139892863736,85.94560064035466,65.23545348192846,8233.333333333332
96.20400087587588,86.11384822322323,65.54039977477477,8266.666666666668
96.10652011458464,86.09092041350105,65.55903599451986,8300.0
95.95893150042959,86.15747871592596,65.23286729672732,8333.333333333334
96.19467826412271,86.2307176705325,65.649784885896,8366.666666666668
96.11020775448351,86.42090805759031,65.25028416266734,8400.0
96.33379641323569,86.51842321293256,65.60810810810811,8433.333333333334
96.20673943996205,86.53912355639929,65.32906185730107,8466.666666666666
96.2123872804936,86.53939250118653,65.31892105679479,8500.0
96.43479150919629,86.19480662635425,65.6104969765684,8533.333333333334
95.78237591332831,85.9070924666163,64.64107772738726,8566.666666666666
96.07158531615411,86.10365528699957,64.93897927834729,8600.0
95.94971629204676,86.04636508981474,64.82303520486536,8633.333333333332
96.22247247247248,85.90318443443444,65.23748748748748,8666.666666666666
96.1933927014572,85.94798542782414,65.28843878440652,8700.0
96.0737091052424,85.86885297595586,64.79793456838786,8733.333333333332
96.5264989716817,86.15247587407057,65.17044771396931,8766.666666666668
96.06263339610796,85.99843063402382,64.83250156936597,8800.0
96.16632844448543,86.16835777757281,65.42021031270178,8833.333333333334
95.7096126738984,86.03651100079672,65.07351228779801,8866.666666666668
95.72510265367409,86.0346264631979,65.07141324998469,8900.0
95.76311159644493,86.02076318742985,65.39789789789789,8933.333333333334
95.30470403289196,85.74224560130602,64.93373239010822,8966.666666666666
95.51033919825865,85.87635286293005,65.6623435516053,9000.0
94.6995296021093,85.77203679290508,65.30121943911793,9033.333333333334
94.80518018018014,85.73998498498499,65.40636636636637,9066.666666666666
94.92990147337973,85.76930609539305,65.46443098617011,9100.0
94.716023916293,85.79177877428998,65.27916292974591,9133.333333333332
95.1559009009009,85.92626126126127,65.57072072072071,9166.666666666666
94.92562032884905,85.91083707025412,65.32364723467863,9200.0
95.36955015215885,86.09997288258158,65.59926481665612,9233.333333333332
95.2607926718665,86.17088397121954,65.39387205997944,9266.666666666668
95.29867283390772,86.16450510913599,65.40043231150614,9300.0
95.64414414414415,86.34636314166515,65.79150795090392,9333.333333333334
95.55571679061613,86.34905375173832,65.60039905677489,9366.666666666668
95.98171080779775,86.49796619361837,66.13724426767904,9400.0
95.57477678571428,86.38950892857143,65.88891369047619,9433.333333333334
96.12938494533348,86.46830241312597,66.3209652503862,9466.666666666666
96.21746629272465,86.45787902875055,66.42212457069155,9500.0
95.76571488494726,86.549571548418,65.87046081016297,9533.333333333334
96.08762284276126,86.75834431927133,66.19434623681687,9566.666666666666
95.94338270425226,86.75215002388914,66.01591614906832,9600.0
96.23105291447682,86.8802705446727,66.40872849976111,9633.333333333332
95.99377388915433,86.8493042283803,66.12334268991877,9666.666666666666
96.01723005255613,86.82280219780218,66.16937410415672,9700.0
96.39663231064236,86.96966383029722,66.50423957334611,9733.333333333332
96.70722515676646,87.1695548759769,66.21570444506224,9766.666666666668
96.88625985886259,87.34455667789001,66.64374336977077,9800.0
96.697031476848,87.29200259475489,66.38796219071449,9833.333333333334
97.33156276209114,87.69459199204796,66.83751126021184,9866.666666666668
97.2371643061682,87.65191548641745,66.80554136676727,9900.0
97.05720919433479,87.6469003947063,66.60230632304001,9933.333333333334
97.32839563501275,87.5527281170188,67.00662487423574,9966.666666666666
96.826325610325,87.44815736277407,66.537474731768,10000.0
97.0412042411578,87.54774398266387,66.78125532079561,10033.333333333334
96.90345948456002,87.53974150607539,66.56441451900008,10066.666666666666
96.88683538425819,87.5648788793437,66.53156876402755,10100.0
97.23666614834394,87.63951174000934,66.79880267454517,10133.333333333332
96.9466743119266,87.470787875031,66.5462279940491,10166.666666666666
96.9601955629353,87.36801808034686,66.71586488938087,10200.0
96.723167750565,87.30662792306629,66.38895807388958,10233.333333333332
97.01964854019647,87.30811924419231,66.66560582998939,10266.666666666668
97.04464738711313,87.3209415309872,66.69979859477577,10300.0
96.77141275771412,87.15674246267855,66.38293129160711,10333.333333333334
97.43282701208337,87.5621253067437,66.78419221569906,10366.666666666668
97.03143297380585,87.3993374422188,66.53964560862866,10400.0
97.43487346180635,87.18687408095349,66.81225911307175,10433.333333333334
97.10752337464666,87.11243127387941,66.09435280961699,10466.666666666666
97.1216102879508,87.11943590221478,66.13874134128537,10500.0
97.18430462038542,87.09593684699327,66.38074452441761,10533.333333333334
97.10703463203464,87.21736239950528,66.24033704390847,10566.666666666666
97.42592764378479,87.2980055658627,66.47557204700064,10600.0
97.15504019789736,87.31626468769329,66.16757884972169,10633.333333333332
97.48967223252936,87.48395176252319,66.63273036487323,10666.666666666666
97.53157081014223,87.51221397649971,66.68614718614718,10700.0
96.91738061422396,87.2463157251722,66.38533315007408,10733.333333333332
97.36162861491628,87.56856925418569,66.88388127853881,10766.666666666668
97.22536697247708,87.61717125382263,66.74331804281346,10800.0
97.49646788990826,87.77324159021406,67.04111620795108,10833.333333333334
97.51773442184401,87.93476623156988,66.88269298771581,10866.666666666668
97.51725781406151,87.91765447473209,66.92211306366558,10900.0
97.90750339380476,87.94094779711217,67.32017462668148,10933.333333333334
97.60287903413048,88.03521399272499,66.87398808141785,10966.666666666666
97.73483476511106,88.16862471944893,67.05693057812863,11000.0
97.3860470144874,87.98901862663332,66.65112902727583,11033.333333333336
97.8044569799157,88.16371187701462,66.93075874039177,11066.666666666664
97.65139159175855,88.03436505730083,66.90564668087605,11100.0
97.64952573472245,88.10003109936247,66.6637070440056,11133.333333333332
97.7610339697496,88.05324820233078,66.82162782048104,11166.666666666664
97.46206651857337,87.81881710477602,66.54762125138838,11200.0
97.6467272109474,87.83753436505732,66.74026194668397,11233.333333333332
97.86900081133372,88.05704300068649,66.68251887911129,11266.666666666668
97.85380390688385,88.0211258815453,66.69209885789178,11300.0
97.9807183952729,87.92237599129218,66.95888664282383,11333.333333333336
97.68276449191241,87.84012073368935,66.65654361117561,11366.666666666668
97.64040711529293,87.54513168211798,66.81223190812231,11400.0
96.98565359275905,87.29323933255341,66.10513515177637,11433.333333333336
97.50905367034402,87.49178420146163,66.51428261105681,11466.666666666664
97.5441822216016,87.47369237691821,66.63245356793745,11500.0
97.10632664437011,87.31755543168586,66.28062678062679,11533.333333333336
97.33712684256164,87.41959308807135,66.57669082125604,11566.666666666664
96.97115207373272,87.39265745007681,66.4578955453149,11600.0
97.19276497695853,87.45823348694314,66.68479262672811,11633.333333333332
96.96069124423964,87.40870967741934,66.34305683563747,11666.666666666664
96.96941628264207,87.38788018433179,66.35889400921657,11700.0
97.05859117840684,87.35938576480854,66.61933340477978,11733.333333333332
97.0453149001536,87.38270353302612,66.49360983102919,11766.666666666668
97.63133640552995,87.7516469241951,66.91865895524697,11800.0
97.13068807339451,87.54316513761471,66.63211009174313,11833.333333333336
97.31427387929185,87.46158448651468,66.81787916909576,11866.666666666668
96.93690477975916,87.34940084286936,66.93216551434527,11900.0
96.58238636363636,87.37104677729677,66.45846861471861,11933.333333333336
96.64718614718616,87.4721620971621,66.60833032708031,11966.666666666664
96.8743457915153,87.55355273690044,66.33356936149251,12000.0
97.05827843113107,87.57985961455574,66.5558463148821,12033.333333333336
97.03352033225887,87.60626394743366,66.3533814778081,12066.666666666664
96.35281385281384,87.31174843674845,66.32285654160654,12100.0
97.35868150260352,87.69940181006695,66.63890094222663,12133.333333333332
97.13834304487976,87.59020890156212,66.39358108108108,12166.666666666664
97.3561334262054,87.59566597012615,66.5986688336816,12200.0
97.00216960079348,87.35266860897595,66.30121807587405,12233.333333333332
97.08597124521782,87.41634271257557,66.50660249290387,12266.666666666668
97.18762397718821,87.43996404661543,66.51413339945451,12300.0
97.03100606437569,87.37269475975744,66.30643756802986,12333.333333333336
96.96510001076211,87.00924004120351,66.50199099057545,12366.666666666668
96.86676964363727,87.15345128877243,65.97317917992886,12400.0
96.75658706651858,87.01534925336296,66.09170986054548,12433.333333333336
96.65758052573122,87.12749907441689,65.94352400345551,12466.666666666664
96.6002951893363,87.05411804498561,65.91713174361577,12500.0
96.91304214135263,87.26613163599467,66.25529265255292,12533.333333333336
96.97814081204493,87.37518511662348,66.0539769221276,12566.666666666664
97.54167054949828,87.66890317770945,66.44609076507315,12600.0
97.08623349376776,87.43972911267433,66.04637171417994,12633.333333333332
97.2985776872763,87.57446316179194,66.310394298408,12666.666666666664
97.28789926289926,87.62754914004913,66.39597665847666,12700.0
97.18070467728,87.61378501789461,66.15028384548933,12733.333333333332
97.2359797297297,87.63625614250614,66.40800061425061,12766.666666666668
97.10281019656021,87.52811732186731,66.23057432432432,12800.0
97.39240369799693,87.39958397534669,66.68235747303544,12833.333333333336
96.71950203628286,87.11031408120449,66.08024805627545,12866.666666666668
97.02612346446898,87.27127973876536,66.20082413310527,12900.0
97.09650746637048,87.24225595458469,66.3761569788967,12933.333333333336
96.93033046977787,87.18757062146892,66.18627041250677,12966.666666666664
96.97670454545454,87.22817874692875,66.52228194103193,13000.0
96.81302003081663,87.18448382126348,66.36845916795069,13033.333333333336
97.04191063174112,87.26816640986132,66.624437596302,13066.666666666664
96.96873464373465,87.23252457002457,66.64821867321866,13100.0
97.04276437847868,87.30046382189241,66.44573283858999,13133.333333333332
97.08522342064714,87.22907550077039,66.59835130970724,13166.666666666664
97.05891032211971,87.21736091696953,66.33583387692977,13200.0
97.17031539888686,87.34279529993816,66.53252937538653,13233.333333333332
96.81110939907549,87.15896764252695,66.18636363636364,13266.666666666668
96.96994434137292,87.29158936301793,66.22473716759431,13300.0
97.39965209828225,87.11937377690802,66.63398875531948,13333.333333333336
97.04622122821728,86.96393625943527,66.1058304600379,13366.666666666668
97.44013277853102,87.28453878161673,66.39495379244785,13400.0
97.2418399007136,87.21037852932051,66.30102389078498,13433.333333333336
97.75942953649842,87.46062425720898,66.6179708513167,13466.666666666664
97.60691632770741,87.3556812691882,66.51821029501146,13500.0
97.30905988209742,87.3580204778157,66.26270555383185,13533.333333333336
97.67324325587921,87.49020524568705,66.56050617918868,13566.666666666664
97.63401513729906,87.52688121598801,66.40989554012636,13600.0
97.31227973399528,87.3489166743281,66.70187858171677,13633.333333333332
97.06856957908852,87.24218978777184,66.37025106730577,13666.666666666664
97.1724863142919,87.27179661645997,66.37110691862803,13700.0
97.23306567205586,87.20284203874668,66.49960698488047,13733.333333333332
96.84767267036915,87.01402227608853,66.13968580282899,13766.666666666668
96.72556956691851,86.65765792879286,66.55385680320222,13800.0
96.15565218704228,86.38103003125424,65.81040600323111,13833.333333333336
97.12127196392471,86.63092831596953,66.10040429171202,13866.666666666668
97.09800964080236,86.62965324210856,66.153055512362,13900.0
96.87560960457243,86.59182120336719,65.9805703103159,13933.333333333336
96.92082656141164,86.58492376751025,66.21668601501432,13966.666666666664
96.68411113690891,86.46011918582155,65.83180868353843,14000.0
96.75032395409107,86.48418795507837,65.9739294088609,14033.333333333336
96.5584042947057,86.33009379242256,65.73293841786993,14066.666666666664
96.74741893042334,86.43730361427133,65.79969042643758,14100.0
96.7949987658892,86.41523201283476,66.04348698013082,14133.333333333332
96.42164891324423,86.20398990209962,65.68428668185456,14166.666666666664
96.58412351456192,86.25855858629394,65.97149190320792,14200.0
96.26090220955533,86.1752474640679,65.71300297263339,14233.333333333332
96.60563510964032,86.08891844245821,66.29505458819163,14266.666666666668
96.61628985865835,86.12147032443634,66.33939009680513,14300.0
96.02305693873129,85.99379890514334,65.8432097238116,14333.333333333336
96.44149637698023,86.31164176325468,66.13032009806204,14366.666666666668
96.50045148835473,86.45732656619751,66.08969049694856,14400.0
96.80628035869972,86.63807759372277,66.282304770208,14433.333333333336
96.73678044208387,86.67231117706787,66.04367726314145,14466.666666666664
96.67121754004043,86.68760690405847,66.04870160161717,14500.0
96.80235275907437,86.78783375899698,66.24707066016562,14533.333333333336
96.6542218094575,86.76859376209272,66.082841885303,14566.666666666664
96.75584660002468,86.78171664815504,66.23008453659139,14600.0
96.82853415338738,86.81853197900166,66.05470133258783,14633.333333333332
97.1892435873432,86.9479030144168,66.28978655682457,14666.666666666664
97.3477471271566,86.99452046215988,66.34737138741899,14700.0
96.96716380694129,86.81390746022099,66.04185952280767,14733.333333333332
97.14752231167697,86.53122074517881,66.35619110029333,14766.666666666668
96.76793381670623,86.44392192636165,65.66131391453422,14800.0
96.65013217229048,86.32032343336962,65.81365262012129,14833.333333333336
96.44877942458588,86.26022854651886,65.61634387844065,14866.666666666668
96.46044027898864,86.22571304022917,65.60429380993897,14900.0
96.69672437414371,86.28165089052185,65.8555860007473,14933.333333333336
95.97729486243,86.03731434136841,65.60156440224007,14966.666666666664
96.3361734615972,86.19343411207821,65.92679798442511,15000.0
96.1846694151779,86.15935257291191,65.74044892349977,15033.333333333336
96.234897094431,86.19064769975787,66.04131355932203,15066.666666666664
96.24824263725607,86.12899951521028,66.05179675190885,15100.0
96.20679661999328,86.15216131295567,65.86800280650377,15133.333333333332
96.24878011704796,86.0711712396443,65.9209546249145,15166.666666666664
95.86349239864865,85.97758807915058,65.69173805501929,15200.0
96.25498424433405,85.92172160950187,66.1053357168828,15233.333333333332
95.87507574839417,85.88174160707794,65.64961822809357,15266.666666666668
96.0195485293,85.94641635631224,65.75798434293533,15300.0
96.28620237332599,86.05219486897897,65.96324090174186,15333.333333333336
95.7830565992001,85.86580414495212,65.70724760635075,15366.666666666668
96.07555992736076,85.98772699757868,66.04223668280872,15400.0
95.95255757391504,85.95500494033594,65.80661244964658,15433.333333333336
96.04092227821043,85.8888685295465,65.78369216674301,15466.666666666664
96.04550313024887,85.88648648648648,65.8027485112231,15500.0
95.55211263299499,85.68055215849334,65.37992234315765,15533.333333333336
95.7462700256818,85.68331906567201,65.51641800171213,15566.666666666664
95.36826789767969,85.49299937535233,65.14932126696833,15600.0
95.51058092234564,85.47780977192744,65.28541828541829,15633.333333333332
95.18212151545484,85.30838414171747,65.0058695058695,15666.666666666664
95.1644978311645,85.2928837928838,65.0364758698092,15700.0
95.3521373722716,84.97135558377171,65.31300259991535,15733.333333333332
94.80506816745418,84.80816805609896,64.81587263370153,15766.666666666668
95.20793888058462,84.99255635578507,65.05236218689133,15800.0
95.14350714350714,85.000546000546,64.81975915309249,15833.333333333336
95.3479759482523,84.95661878587264,65.04986486076103,15866.666666666668
95.24229413359848,84.95204736509085,65.13659646268341,15900.0
94.93609328391938,84.86754647624213,64.87985477115912,15933.333333333336
95.45610762277428,85.15174265174267,65.27225710559044,15966.666666666664
95.28553721506742,85.09507829977629,65.10644537154604,16000.0
95.48248080295059,85.21795453171292,65.36282423362961,16033.333333333336
94.81686098654707,84.90167414050822,64.94765321375186,16066.666666666664
94.9025225225225,84.92756756756756,64.933993993994,16100.000000000002
95.18124690672946,85.13302938044603,65.31628597567378,16133.333333333332
94.87241477570976,84.9629257465093,64.97334913088471,16166.666666666668
95.35423657718121,84.91305129434323,65.56040268456375,16200.0
95.21967000482626,84.92249336389962,65.1391620415058,16233.333333333336
95.35985762548263,85.00720921814674,65.24417833011583,16266.666666666664
95.35023527992279,85.0214165057915,65.25398166023166,16300.0
95.00348725348725,84.84358465608466,64.988455988456,16333.333333333332
95.10642377756471,84.79185642377756,65.1316215244487,16366.666666666668
94.71495759675108,84.63245043000478,64.77793537983754,16400.0
95.05112955417069,84.81407298657717,65.00393995685522,16433.333333333332
95.11728646706226,84.88549168818227,64.83699476076157,16466.666666666664
95.12749316785192,84.86634657486675,64.78741072911477,16500.0
95.35894067732632,84.97467953073334,64.99980371729251,16533.333333333336
94.9856893490234,84.80207361483131,64.69157612784784,16566.666666666668
95.22120564601076,84.95139494989016,64.93424022632198,16600.0
95.06733981400669,84.93016221747375,64.75176814036777,16633.333333333332
95.46555512083548,84.92876275318265,65.30886026424294,16666.666666666668
95.48958678183405,84.95664670298251,65.35576488999911,16700.0
94.97366371045065,85.00290627996165,65.05640280441035,16733.333333333336
95.33703250743608,85.15492745089158,65.19939303347375,16766.666666666664
95.16716269841272,85.16466750841751,65.05339105339105,16800.0
95.63880135741123,85.35838080232699,65.34023148709247,16833.333333333332
95.61609789465685,85.49730181652352,65.16129816827544,16866.666666666668
95.57909857870337,85.47364900813254,65.18546781181121,16900.0
95.75921610169493,85.65688559322035,65.50917070217919,16933.333333333332
95.60272397094431,85.70351089588378,65.3793583535109,16966.666666666664
95.90155871670702,85.90068099273606,65.68754539951574,17000.0
95.61404678220822,85.79293418979519,65.31426493758332,17033.333333333336
95.89622470003636,85.99030420555084,65.58323233547449,17066.666666666668
95.93285662343958,86.02484547327595,65.61568294752149,17100.0
95.5734929560433,85.88273172501358,65.19097285204668,17133.333333333332
96.10146306110431,85.96374809379293,65.82846401232051,17166.666666666668
95.83809423262548,85.96595982142857,65.60423202220079,17200.0
95.87907347282349,86.04153138528139,65.73842592592592,17233.333333333336
95.68002946127943,86.09639550264549,65.64242123617124,17266.666666666664
95.66659151034149,86.09615500240501,65.57742604617604,17300.0
95.9739396959128,86.23404448068125,65.82142803219037,17333.333333333332
95.91414677008848,86.28010241182886,65.64702763301419,17366.666666666668
96.0733547448794,86.35592655435705,65.92231244697612,17400.0
95.64150150150152,86.16840840840841,65.69441441441441,17433.333333333332
95.57297539149887,86.02794929157345,65.81470544369873,17466.666666666664
95.7420127197905,86.15800972689861,65.89239057239057,17500.0
95.59059343434343,85.98044432419432,65.61347101972102,17533.333333333336
95.7309390198279,86.00695847362513,65.87473251028807,17566.666666666668
95.61655242905243,85.85049903799904,65.61991943241944,17600.0
95.98747895622895,85.67215307840308,66.03115981240981,17633.333333333332
95.6538519546332,85.55720620173746,65.54411498552123,17666.666666666668
95.79723062953995,85.68128026634382,65.56974878934625,17700.0
95.94228100868729,85.72298805501929,65.81722068050193,17733.333333333336
95.74791867760618,85.70973093629344,65.6004765926641,17766.666666666664
95.8568018018018,85.82015015015014,65.88861861861862,17800.0
95.8825665859564,85.91165254237288,65.76920399515738,17833.333333333332
96.0107294188862,85.9435078692494,65.86826573849879,17866.666666666668
96.06248486682809,85.96678268765133,65.91148607748184,17900.0
95.73414876930502,85.89142434845559,65.6669733349421,17933.333333333332
95.91016291464722,85.94617324213736,65.87910495085383,17966.666666666664
95.60411673058485,85.86466323106423,65.60669343240652,18000.0
95.76137211036541,85.97691275167784,65.93643549589858,18033.333333333336
95.6825289936401,85.95328095772541,65.74454171343059,18066.666666666668
95.64549195660307,85.93845117845117,65.72115226337448,18100.0
95.96335203890759,86.01104377104376,66.217164234942,18133.33333333333
95.38770373921379,85.86343480345158,65.66523849472675,18166.666666666668
95.6452241131352,86.02984180249281,65.93773969319271,18200.0
95.47841263183123,86.00585750239692,65.77745985139022,18233.333333333336
95.79145194151484,86.22622543144773,66.12885007190795,18266.666666666664
95.96654040404042,86.37981000481001,66.19639850889851,18300.0
95.76835016835017,86.41593714927048,66.12490834268611,18333.33333333333
95.78106280193238,86.40868078781122,66.32771460423635,18366.666666666668
95.50174887892376,86.22841554559044,65.96997010463379,18400.0
95.63366160417655,86.35275272899858,66.23257297104888,18433.33333333333
96.03909531008995,86.53901131625967,65.93859287426888,18466.666666666664
95.43375,86.26229166666668,65.8658630952381,18500.0
95.62594921689606,86.29550308495493,66.18161188894163,18533.333333333336
95.59106128550074,86.30651718983557,65.93855007473843,18566.666666666668
96.43935779816515,86.35354740061163,66.32100917431192,18600.0
96.08813243536294,86.33855622241566,65.80769994349507,18633.33333333333
96.39544295291763,86.38233991539529,66.08144347215223,18666.666666666668
96.40446847177044,86.40675921259603,66.11136054733434,18700.0
96.34241978486715,86.42612852808679,65.78146547761331,18733.333333333336
96.35092424242424,86.41168181818182,66.09668181818182,18766.666666666664
96.42352364316143,86.48247065673746,65.85164414207348,18800.0
96.65326418547896,86.65791641244661,66.2244356314826,18833.33333333333
96.4985766758494,86.62760942760944,65.98397612488522,18866.666666666668
96.5109389173316,86.59897298710085,65.89270175114926,18900.0
96.75125686084593,86.76746152545239,66.27793920944606,18933.33333333333
96.58247620804698,86.80113155912242,66.19543993973218,18966.666666666664
96.19488441461596,86.71052945563015,66.46271439224459,19000.0
96.08924803591472,86.67392442947998,66.20172091283202,19033.333333333336
95.8018493661447,86.48811334824757,65.99446681580909,19066.666666666668
95.79635989010988,86.48347169135212,65.93414058767321,19100.0
95.71238951266123,86.47588688485428,65.84860248447204,19133.33333333333
96.06928100641045,86.60155897312426,66.09257531525567,19166.666666666668
95.57588148148147,86.54257777777778,65.88893333333333,19200.0
95.89302083333334,86.61325892857144,66.2772619047619,19233.333333333336
95.71891369047621,86.66254464285713,66.05825892857143,19266.666666666664
95.73912202380951,86.64715773809523,66.05138392857144,19300.0
96.01284226190478,86.70409226190478,66.33671130952379,19333.33333333333
95.93722779635824,86.68414715719065,66.20927536231885,19366.666666666668
96.10382757339279,86.72728353771832,66.41229282794501,19400.0
95.90940170940172,86.59820141211445,66.18968413229283,19433.33333333333
95.93487922705314,86.61140096618358,66.27988108509848,19466.666666666664
96.00431497849978,86.62298435260391,66.2527024605829,19500.0
95.5828125,86.2990625,65.93037202380953,19533.333333333336
95.79026785714285,86.07997023809523,66.5878869047619,19566.666666666668
94.92705795496494,85.69603543743081,66.00100406053895,19600.0
95.57021681937763,85.88841513199674,66.16459524025522,19633.33333333333
95.24957729912519,86.00108799529518,66.18093067705654,19666.666666666668
95.60755000751992,86.06194916528801,66.02245450443675,19700.0
95.48895096669851,86.08393736675734,66.31053444093214,19733.333333333336
95.46778461629948,85.96757648737847,65.84200041625785,19766.666666666664
96.18602284464428,86.26903214047026,66.08695850294671,19800.0
95.90015869624928,86.03010650959807,65.71774956511123,19833.33333333333
96.25235453686487,86.20620866225731,66.06222378006035,19866.666666666668
96.35091743119268,86.2428134556575,66.07498470948013,19900.0
95.7808309982223,86.14134201090721,65.82459549850854,19933.33333333333
96.06738903433771,86.20835666399309,65.94671529532832,19966.666666666664
95.86648567119155,86.1323378582202,65.74808446455505,20000.0
96.48184748558545,86.19851995338912,66.30962938301124,20033.333333333336
95.96183263800714,86.15144506923029,65.82205695628514,20066.666666666668
95.95079811354981,86.17798839107564,65.8260475240341,20100.0
96.4004753416518,86.3619757149169,66.0687264804912,20133.33333333333
96.03698833061249,86.28313380494589,65.83600882761957,20166.666666666668
96.26153429439914,86.40015649923254,66.19979233755681,20200.0
95.97802991543024,86.32139525085022,65.9402744755771,20233.333333333336
96.02047182686684,86.28342606895932,66.05319675450305,20266.666666666664
96.16659108773204,86.31013060039905,66.013619324022,20300.0
95.8570912049173,86.18328361806624,65.83370996414476,20333.33333333333
96.0661817962337,86.20992274263641,66.09684331240946,20366.666666666668
95.76317679806051,86.12865523330639,65.88768669001227,20400.0
96.13969847712634,86.10371715445417,65.87653736991486,20433.33333333333
95.97391674651337,86.05195358245503,65.75875652081338,20466.666666666664
96.0530803080308,86.0468769099132,65.73343723261215,20500.0
96.37582698362007,85.99998479110585,66.35858009764111,20533.333333333336
95.97565284178188,85.89436251920122,65.82566820276497,20566.666666666668
96.04983102918587,85.84350230414745,65.9705376344086,20600.0
96.01292796832958,85.9428138434417,65.71932700337118,20633.33333333333
96.08321131883542,85.94878473560102,65.85654177519535,20666.666666666668
96.29140506603159,86.06086660687224,65.98110289796803,20700.0
96.06929452880958,86.06437695233973,65.62378993597872,20733.333333333336
96.38519795579089,86.06948463764546,65.99291915522443,20766.666666666664
96.04537193995205,85.90453719399521,65.79439837510118,20800.0
96.45833716404644,86.1558027642426,66.04109589041096,20833.33333333333
96.55577178512958,86.30574861767523,65.88212399221574,20866.666666666668
96.55008803632658,86.2934544218948,65.86809995984308,20900.0
96.79453556976492,86.42728508324839,66.10847002131406,20933.33333333333
96.34781342894793,86.21435138365358,65.79543991909534,20966.666666666664
96.36176904324795,86.17300689198544,66.39288831372077,21000.0
95.72458268968307,86.08577170538567,65.79841624548195,21033.333333333336
96.31003958147954,86.19835230585129,65.87323187383018,21066.666666666668
96.33052069589763,86.20297014513208,65.88990825688072,21100.0
95.6808707596751,86.14491758241758,65.8361801242236,21133.33333333333
95.9144469660774,86.1426779741997,66.11666865742953,21166.666666666668
95.657504180602,86.08204431438125,65.8046165790731,21200.0
95.67907738095238,85.98922619047619,66.00979166666667,21233.333333333336
95.3688,85.86038518518518,65.7381037037037,21266.666666666664
95.41383928571429,85.81363095238095,65.71074404761903,21300.0
96.13970408785843,86.08727882855398,65.87501525320317,21333.33333333333
95.80930373973852,85.91991486774096,65.64613864396473,21366.666666666668
96.3231635983006,86.04393202389015,65.80940213041069,21400.0
96.24752108238349,86.01603187841721,65.56828221048407,21433.33333333333
96.49155160164335,85.85098693355575,66.13906650603899,21466.666666666664
96.53442683717914,85.86430049732803,66.16399468693048,21500.0
95.66524099857432,85.51976218642885,65.80037613370946,21533.333333333336
95.77916685540005,85.62657969832856,66.03928673883831,21566.666666666668
95.72285177554235,85.66522239728519,65.81502242152466,21600.0
96.0480125395666,85.76410701241781,65.923803871439,21633.33333333333
95.94097774244837,85.72359973095267,65.5352054543231,21666.666666666668
96.00529181685712,85.76329473119104,65.49494593143646,21700.0
95.96848363515028,85.74885491552158,65.67379500712832,21733.333333333336
95.70966420966421,85.68042284708952,65.38191221524555,21766.666666666664
96.18705868030192,85.95206355003653,65.7508522035549,21800.0
96.00833232335476,85.92620591443462,65.59335232093079,21833.33333333333
96.07019371593364,85.91781794023943,65.75028310005888,21866.666666666668
96.09001826939048,85.93658558680978,65.74199393033474,21900.0
96.07562719670344,85.9646254999394,65.63852866319235,21933.33333333333
96.39748758134407,85.91920701786171,65.90261357974363,21966.666666666664
95.99711615406684,85.91339402998597,65.24098986879254,22000.0
96.25548459180746,85.94205130528,65.42573719255334,22033.333333333336
95.95595718017242,85.85188204919146,65.18023282148843,22066.66666666667
95.9283870091045,85.85115731304072,65.16214461505942,22100.0
96.29129802448188,86.02675433280814,65.55841716155618,22133.33333333333
95.86944180217722,85.80220742552581,65.21858344279869,22166.66666666667
96.10338059216984,85.93987709682777,65.4903745979979,22200.0
96.09950309053448,86.08253545024846,65.44273421403466,22233.333333333336
96.36238434380327,86.16281653274895,65.68585646457268,22266.666666666664
96.42769965911856,86.14720294618944,65.7383887265644,22300.0
96.12429997565133,86.02209642074507,65.43559775992209,22333.33333333333
96.18617101950434,85.96410046410045,65.60622743956077,22366.66666666667
96.16856008550924,85.94531989616733,65.42508779966407,22400.0
96.35799435799437,85.61968028634695,66.08857342190676,22433.33333333333
95.75178414163807,85.32532114549484,65.42263658173647,22466.666666666664
95.93456434632904,85.44541950424303,65.53145329615919,22500.0
96.17906059082529,85.53364718070601,65.78210460563402,22533.333333333336
95.97696421225834,85.56608315431846,65.57601657601658,22566.66666666667
96.08516808891856,85.57009019405388,65.82949679613715,22600.0
95.91929606122262,85.49808679279663,65.64133438610344,22633.33333333333
96.189771933554,85.67648577241945,65.93246074888397,22666.66666666667
96.21672386042698,85.7065352728598,65.9616599350117,22700.0
95.90096909140158,85.68349535016705,65.76168477443044,22733.333333333336
96.1209408011557,85.83743642218678,66.00425858488579,22766.666666666664
95.80732486464598,85.7636666316721,65.67275072363783,22800.0
96.25408553284979,86.01704938754627,65.99727631143348,22833.33333333333
95.94996897652807,85.82319647694426,65.61806322734908,22866.66666666667
95.95450899680685,85.82325701054798,65.57012061320539,22900.0
96.55384311700932,85.93226335448996,66.04921194084241,22933.33333333333
96.05902092380579,85.93344772085396,65.38666524947615,22966.666666666664
96.30801117555954,86.11684229706339,65.55602963952748,23000.0
96.18263536700174,86.15521273041998,65.43053235749643,23033.333333333336
96.4489691033315,86.27743515327408,65.81531531531532,23066.66666666667
96.49213979079752,86.29732752887115,65.87287623193663,23100.0
96.23000181389445,86.30488542233509,65.64193723925267,23133.33333333333
96.41780801117555,86.35652464393087,65.74302286738134,23166.66666666667
96.13354489963257,86.3022108172128,65.47622156761517,23200.0
96.4715023538553,86.43708579002697,65.8577631518808,23233.333333333336
96.14021055197529,86.30444718680012,65.54521078050489,23266.666666666664
96.11251275957159,86.29375199963434,65.52805582217347,23300.0
96.59308973402928,86.30978125776781,65.73744717872235,23333.33333333333
96.30950161570965,86.18338304747702,65.50773676360924,23366.66666666667
96.41558876852993,86.05455764279293,66.18002041531453,23400.0
96.544419276732,86.04314613762398,65.65076935093337,23433.33333333333
96.40937547717206,85.97523285997862,66.02033898305085,23466.666666666664
96.60971685971687,86.12660109088682,66.11648893791751,23500.0
96.33213826070973,86.12183612183613,65.78608200036773,23533.333333333336
96.39467094212856,86.08592151473506,65.87874484654145,23566.66666666667
96.02364864864865,86.02186098654707,65.55894740031512,23600.0
96.17543328081443,86.08268694703672,65.75086353169313,23633.33333333333
95.87221995742176,85.93096888164155,65.48222131630203,23666.66666666667
95.84848484848484,85.92631849134091,65.45850130603493,23700.0
96.54429936693451,86.19836559532507,65.94993304114925,23733.333333333336
96.42768444119795,86.20754200146091,65.79332542001461,23766.666666666664
96.50925249573898,86.22872534696859,65.87189554419285,23800.0
96.23664573664571,86.17995267995268,65.54022204022203,23833.33333333333
96.28166852258705,86.0360851115057,65.92608420862551,23866.66666666667
96.25045896409547,86.09046859481747,65.90637132452524,23900.0
96.16243485638105,86.24569749121319,65.48139619440067,23933.33333333333
96.255363802449,86.2801709169422,65.69638084884721,23966.666666666664
96.03913575214024,86.34239253521764,65.51056151953013,24000.0
96.41743757180001,86.52944555293548,65.93956708386239,24033.333333333336
96.21899110688351,86.55304917636757,65.82307378719935,24066.66666666667
96.23402938201143,86.5480968126708,65.85650224215246,24100.0
96.55989322655992,86.69146419146419,66.16301149634482,24133.33333333333
96.48501696764029,86.74107683917101,66.0240728396558,24166.66666666667
96.62165753197144,86.74992073198351,66.31526022557412,24200.0
96.50263471788135,86.68558529993506,66.14958252177983,24233.333333333336
96.66496051697844,86.73989521523157,66.35176880916791,24266.666666666664
96.79404011634956,86.8096745848988,66.37742394861229,24300.0
96.33858007042463,86.59045354681435,66.04499352935865,24333.33333333333
96.67007896604308,86.51192039981278,66.44308556416179,24366.66666666667
96.2164283117198,86.39628529875166,65.91764634589747,24400.0
96.35016835016836,86.4416209931905,66.10147815977412,24433.33333333333
96.02126282842268,86.38262557558613,65.66510669034221,24466.666666666664
96.00498861457336,86.34292605465004,65.72793324544583,24500.0
96.48579970104632,86.5294197581193,66.12145369992903,24533.333333333336
96.40298145679311,86.51514967882679,65.93473518361411,24566.66666666667
96.64795176342258,86.67073688037813,66.21745848988003,24600.0
96.33999184671828,86.57633132521025,66.00991982606332,24633.33333333333
96.7842534238274,86.76464973942551,66.27825415101199,24666.66666666667
96.85753242031271,86.7699369773361,66.3316567688765,24700.0
96.48892512569643,86.61184339659675,65.97489091211064,24733.333333333336
97.00413927440954,86.89243973703434,66.24619551984416,24766.666666666664
96.79956476747014,86.88511991721451,66.03331202824445,24800.0
96.83442533442532,86.7384505717839,66.5752267418934,24833.33333333333
96.25328358661692,86.79364212697546,66.22342039008706,24866.66666666667
96.27049777049776,86.78710528710529,66.2628689295356,24900.0
96.4371819842672,86.8454349171838,66.49617248720388,24933.33333333333
96.13466458001024,86.74889397176996,66.17300689198544,24966.666666666664
96.38586089625908,86.95190658199655,66.47994101182772,25000.0
96.4143376968489,87.1069589769141,66.37437151786928,25033.333333333336
96.47501198465963,87.14300695110258,66.59938279002876,25066.66666666667
96.51559008353705,87.14280786478096,66.64884442911351,25100.0
96.31670591058386,87.11039788832731,66.35571486419605,25133.33333333333
96.791269148584,87.3354350377705,66.70280193818279,25166.66666666667
96.63145935534357,87.29582869353237,66.53366238300178,25200.0
96.83934751858429,87.34661570409607,66.64786167875522,25233.333333333336
96.50326541667921,87.08887350648571,66.2538899088091,25266.666666666664
96.50979625003764,87.09001715472357,66.24621542721282,25300.0
96.73343309752704,86.98529233931919,66.50364290464962,25333.33333333333
96.1079554891214,86.98055291328835,65.91035919735471,25366.66666666667
96.42692998746807,87.01289426401534,66.23724539868036,25400.0
96.09170253107412,86.87263370150782,65.98335690853824,25433.33333333333
96.5838717505384,87.09535292868625,66.3071253071253,25466.666666666664
96.516993552868,87.08396370279779,66.3311742235509,25500.0
96.17529418846121,86.86428205977067,66.0128961386824,25533.333333333336
96.40215788364884,86.93145634574293,66.2753634092756,25566.66666666667
96.27649797448456,86.89304069169842,66.04870306548159,25600.0
96.39088692930449,86.96141691997472,66.28940319619586,25633.33333333333
96.17601649261145,86.88068438318236,66.07137267884552,25666.66666666667
96.01375286830542,86.733776264679,66.04973229149482,25700.0
96.23453364728468,86.8704800755883,66.35983922492014,25733.333333333336
96.04124360724087,86.77599472081829,66.16999865020922,25766.666666666664
96.47447858669157,86.87126433322298,66.66597947452374,25800.0
95.96081499984949,86.81337466518194,66.15195473560661,25833.33333333333
96.13482910148927,86.88973709075094,66.44781558858378,25866.66666666667
96.348071225588,86.92588729669266,66.44399600943225,25900.0
96.15726464719756,86.92862325412659,66.27589334300744,25933.33333333333
96.4012850994673,87.05048605050109,66.54102085653234,25966.666666666664
96.25127155626447,86.99611761519245,66.39377614590543,26000.0
96.6437194770528,87.18159068159069,66.60088876755543,26033.333333333336
96.32607775560795,87.13573976661225,66.34962815164158,26066.66666666667
96.57178293158024,87.30869551984415,66.4433741173606,26100.0
96.91733625517408,87.48186023861699,66.80868030192354,26133.33333333333
96.647042782693,87.47082171857956,66.64757302145195,26166.66666666667
96.9338413525633,87.64124045570235,66.97741182886922,26200.0
96.74953035995637,87.59997273057812,66.77213368076596,26233.333333333336
97.29293911986015,87.62795470091964,67.15993007524511,26266.666666666664
97.317473588204,87.62454966937752,67.22760507714524,26300.0
96.56314386135014,87.3634104956975,66.51195309659435,26333.33333333333
96.72351315849072,87.45838051667648,66.80355120713865,26366.66666666667
96.54771934592564,87.42859084114691,66.67060741948634,26400.0
96.93093261422855,87.55918979517634,67.03731365895042,26433.33333333333
96.56727212332594,87.3265691292597,66.71542027147409,26466.666666666664
96.36790862852502,87.1982273452313,66.60557678995997,26500.0
97.22315893875529,87.57751673692042,66.80002479543764,26533.333333333336
96.77770055292991,87.32686189108209,66.37333580452847,26566.66666666667
96.89458808266147,87.38898155870632,66.5925308127143,26600.0
96.73161724774627,87.25319244674084,66.30078046207079,26633.33333333333
96.96519728777794,87.29499294015423,66.46739282223153,26666.66666666667
96.99824667566605,87.30178901146644,66.48635355086968,26700.0
96.06105553639186,86.96087106498493,66.20491323844804,26733.333333333336
96.7205585818762,86.86917266078791,66.61561380804767,26766.666666666664
97.15373171336478,87.05355814530127,66.24882221671213,26800.0
96.9694279481275,87.07883892861472,66.53557144588535,26833.33333333333
96.88192340322384,87.13695309659435,66.50912010665374,26866.66666666667
96.85001817961461,87.1486789480063,66.47991152587565,26900.0
97.11609198884985,87.24137983274755,66.83006605259969,26933.33333333333
96.72706134589542,87.06966526249037,66.51247905059563,26966.666666666664
96.93969591279007,87.17814920505505,66.80519696214763,27000.0
96.95968850206137,87.27014811421591,66.52267521759046,27033.333333333336
97.00324141709277,87.25820245921597,66.70630934989043,27066.66666666667
97.05621499878256,87.25520452885317,66.70223094716336,27100.0
96.76648100803509,87.22594046749451,66.34098794740686,27133.33333333333
97.00188702215729,87.37204772339909,66.63900048697346,27166.66666666667
96.60434427716308,87.16299353044322,66.37141000060463,27200.0
96.82479449146116,87.12740012740014,66.66569599902932,27233.333333333336
96.32744515816263,87.14161919767301,66.22665434492791,27266.666666666664
96.228035210098,87.11020519092268,66.19143603448536,27300.0
96.43201823919314,87.17114342226448,66.38873035285592,27333.33333333333
96.11693803232313,86.95378758238779,66.1745417883047,27366.66666666667
96.25184338038342,86.98729948535829,66.30390947121317,27400.0
96.14621551841284,86.95711977774758,66.0793737071764,27433.33333333333
96.5364046782208,87.149754575203,66.33915585989577,27466.666666666664
96.3737977684166,87.02915553139769,66.27103622170887,27500.0
96.26174100109077,86.97523027511816,66.04300993818931,27533.333333333336
96.58382610017479,87.07553393630766,66.21497301816524,27566.66666666667
96.23219912737852,86.84033753484427,65.9580656890074,27600.0
96.43487153072357,86.89551266513149,66.14104350987759,27633.33333333333
96.3660670805941,86.83700085220356,65.87172814706598,27666.66666666667
96.36323654735816,86.84415327489651,65.84972303384465,27700.0
96.77433494100158,86.5243576910243,66.17158067158067,27733.333333333336
96.49271999272,86.38339855006521,65.59136409136408,27766.666666666664
96.7867867867868,86.5282403615737,66.04803288136621,27800.0
96.64730258847906,86.44775050657404,65.91133049956579,27833.33333333333
96.6602726887962,86.49557107443012,66.31859544107866,27866.66666666667
96.7275984037729,86.52169115424152,66.3148164943467,27900.0
96.42432359225931,86.48893971769947,66.12516929003522,27933.33333333333
96.44532597447396,86.48874424464209,66.35177047557629,27966.666666666664
96.16269478230879,86.45603431468125,66.0747184186451,28000.0
96.42767371057488,86.57034659627756,66.37108748144038,28033.333333333336
96.42594775984035,86.69800169296812,66.21744059495738,28066.66666666667
96.39875445915716,86.7277042142814,66.1736803918012,28100.0
96.64447669145656,86.84240280549005,66.45078299776286,28133.33333333333
96.39770367472237,86.81754296204895,66.30943208836186,28166.66666666667
96.87636120969454,86.94967694967693,66.75025025025025,28200.0
96.16127033073342,86.78162222625309,66.06779430437149,28233.333333333336
96.6441744775078,86.99661782995115,66.46786180119514,28266.666666666664
96.64496314496316,87.02849819516486,66.52196135529469,28300.0
96.35298385633956,86.94718544047403,66.29654150795089,28333.33333333333
96.68849152182486,87.14035247368582,66.6056056056056,28366.66666666667
96.25729550148156,87.02877794738261,66.44409026967166,28400.0
96.63122171945702,87.0683257918552,66.5755354449472,28433.33333333333
96.1640083582628,86.76792291156175,66.09593962808736,28466.666666666664
96.37001508295626,86.85610859728506,66.22262443438915,28500.0
96.4099156657296,86.78611265615368,66.2947339937764,28533.333333333336
96.21635273071662,86.68274680176184,65.99657251093639,28566.66666666667
96.58834087481146,86.78088989441929,66.32767722473605,28600.0
96.33660248877639,86.6011479707132,65.95596432552955,28633.33333333333
96.86672151378036,86.56279232749823,66.38638268050033,28666.66666666667
96.74065844367857,86.51609831307817,66.39946490114275,28700.0
96.28066486890016,86.36742995566526,65.73082255435197,28733.333333333336
96.4448842782176,86.45102678436011,65.85065368398702,28766.666666666664
96.33055968902792,86.40236569589115,65.61951471347443,28800.0
96.71267730091259,86.50593415299299,65.9216295686884,28833.33333333333
96.39451547268364,86.4490115096116,65.68492817880896,28866.66666666667
96.47116717704954,86.47585965233023,65.6649755473285,28900.0
96.75181241847908,86.59218309218309,65.96940880274214,28933.33333333333
96.6185124518458,86.55570722237387,65.73236873236873,28966.666666666664
96.67615938085736,86.55795392708143,65.98379587641331,29000.0
96.61907361907362,86.67232383899052,65.92149725483058,29033.333333333336
96.91885825219158,86.82493099159765,66.21030121030121,29066.66666666667
97.0125386595975,86.82051282051283,66.1886131297896,29100.0
96.74043740710407,86.76356659689993,65.98977765644432,29133.33333333333
96.75209332391277,86.6806873017543,66.66884141849943,29166.66666666667
96.33256410256409,86.74395173453999,66.3215233785822,29200.0
96.70110105580694,86.79907993966818,66.64647058823529,29233.333333333336
96.14302547580692,86.53518584809977,66.28185967424379,29266.666666666664
96.17987174492822,86.49640406340833,66.21325402295406,29300.0
96.37464058519434,86.64495031509321,66.49319905248574,29333.33333333333
96.16987556117992,86.48996655518394,66.03332429419386,29366.66666666667
96.2115832537028,86.53208612040133,66.2751881270903,29400.0
96.13114213806328,86.5641478906999,66.13090244487056,29433.33333333333
96.23666706615532,86.58931567593477,66.22869726749761,29466.666666666664
96.28133988494726,86.60055129434325,66.23687679769894,29500.0
95.93881831255993,86.45667545541706,65.83822207574305,29533.333333333336
96.37643279440157,86.62112391409265,66.0942175434363,29566.66666666667
95.80408650260999,86.35731543624159,65.7979120059657,29600.0
96.19775533108866,86.24224466891133,66.33602693602693,29633.33333333333
95.62639730639731,86.10581369248034,65.87940142162364,29666.66666666667
95.6082454171343,86.10816311260756,65.81879536101758,29700.0
95.67542132736764,86.12162565249812,65.99995525727068,29733.333333333336
95.70778900112234,86.26768424990647,65.93725402169846,29766.666666666664
95.82008948545861,86.27995525727069,66.15762863534674,29800.0
95.65512643815916,86.18619666826461,65.92819690795781,29833.33333333333
96.0006285072952,86.45113355780022,66.33230078563412,29866.66666666667
96.04025439580995,86.46139917695473,66.34199775533108,29900.0
96.09747645951036,86.53404143126177,66.11498305084746,29933.33333333333
96.1390990990991,86.61636636636636,66.32393393393393,29966.666666666664
95.98393762065638,86.60242217664093,66.09237753378379,30000.0
96.20078211109602,86.55181108544338,66.24074829007563,30033.333333333336
95.71368648130392,86.40915627996166,65.94747722914668,30066.66666666667
95.73356603547458,86.38990592042185,65.95315496164909,30100.0
96.09607202780441,86.34367509587726,66.61494786673056,30133.33333333333
95.7368326118326,86.42075517075517,66.12578162578163,30166.66666666667
96.1146133958634,86.58665524290525,66.48474326599327,30200.0
96.26883615819209,86.81952542372879,66.38632015065913,30233.333333333336
96.53146114864865,86.8465250965251,66.6124819015444,30266.666666666664
96.65705205811138,86.88871065375301,66.66165254237289,30300.0
96.24368062258688,86.73994027509653,66.2882631515444,30333.33333333333
96.4914786438224,86.82623974420851,66.51241252413128,30366.66666666667
96.31657215250964,86.7098515926641,66.3160291988417,30400.0
96.42684283309285,86.73113576238579,66.47569444444444,30433.33333333333
96.211069023569,86.61032948532947,66.20412457912458,30466.666666666664
96.30697997104248,86.61344715250965,66.21787524131274,30500.0
96.4495922184811,86.62502057613169,66.5334530490086,30533.333333333336
96.20688365132808,86.52803591470257,66.24797605686494,30566.66666666667
96.52242664742666,86.34421596921597,66.47450697450698,30600.0
96.10367063492063,86.15889550264549,65.92902236652237,30633.33333333333
96.57291540419344,86.38627136104715,66.18472003393528,30666.66666666667
96.57140043631077,86.42408495939884,66.23341110168464,30700.0
96.40284145752895,86.38033904440155,65.98345499517374,30733.333333333336
96.43638768638769,86.35861592111593,66.11129148629149,30766.666666666664
96.22872974890913,86.33020790868325,65.85795171445396,30800.0
96.43745376032372,86.46691126511755,66.18061028823361,30833.33333333333
96.25456357294922,86.47640832842626,66.02565264000242,30866.66666666667
96.25780978695776,86.4710483006447,65.97862028355301,30900.0
96.4731168184083,86.58854614908427,66.20386223973668,30933.33333333333
96.27790611647114,86.52910268605335,66.0377919705274,30966.666666666664
96.34405754356398,86.50037620007826,66.21706744515004,31000.0
96.26522667147668,86.56266534391534,66.11963383838383,31033.333333333336
95.93883329338446,86.33456675455416,66.44609899328859,31066.66666666667
96.04291426166428,86.3723995911496,66.41077441077441,31100.0
95.87911709689487,86.39627384960718,66.35311634867189,31133.33333333333
96.05761483886484,86.46718674843676,66.45964105339105,31166.66666666667
95.97040343915344,86.48708814333814,66.29906204906206,31200.0
96.21054292929293,86.5543680856181,66.51626382876383,31233.333333333336
95.97988776655443,86.5332884399551,66.19953610175833,31266.666666666664
96.02496693121695,86.49400252525253,66.15972222222223,31300.0
96.21629990379992,86.56433381433382,66.3478385040885,31333.33333333333
95.92390572390572,86.52776655443321,66.14965955854845,31366.66666666667
96.05999820230105,86.50133329338446,66.20315496164909,31400.0
95.7889932885906,86.39355704697986,65.96572706935123,31433.33333333333
95.99847195589643,86.39144894534996,66.10330776605943,31466.666666666664
96.09057840307841,86.4300444925445,66.13725048100048,31500.0
96.11429315681409,86.35633293493916,65.77194998620944,31533.333333333336
95.88396298573721,86.07357859531773,66.18892571651394,31566.66666666667
95.49285219851326,85.97622415505462,65.68951455141902,31600.0
95.7838416826462,86.12813099232979,66.07707634228187,31633.33333333333
96.05986638472618,86.20616898041739,65.80973614047991,31666.66666666667
96.01720756336,86.23742759952192,65.71798289969661,31700.0
95.99773789549377,86.25010486577179,66.22161133748801,31733.333333333336
95.83281399808243,86.25530321188877,65.9933485139022,31766.666666666664
96.2550505050505,86.50960497835499,66.36174242424242,31800.0
95.99909812409813,86.37496993746994,66.07959054834055,31833.33333333333
96.24493446368449,86.50592231842232,66.29416185666186,31866.66666666667
96.22527497194164,86.54023194912085,66.34983913206135,31900.0
95.89460531238308,86.51938645716423,65.98603815937149,31933.33333333333
96.0543922445936,86.54498135719612,66.18885906040268,31966.666666666664
95.84207400368237,86.54959315792601,65.92267030943755,32000.0
96.9338689929599,86.77064585246404,66.4112641567187,32033.33333333333
96.10990305741986,86.59097688292319,66.05379567486949,32066.66666666667
96.01551081282624,86.63385533184191,65.98338553318419,32100.0
96.37969667173208,86.81210333422723,66.37713417359436,32133.33333333333
96.24860701409374,86.86137183039837,66.2403235898811,32166.666666666664
96.54261129816685,86.92556677890009,66.56260381593715,32200.000000000004
96.23848858959973,86.84357650579872,66.31694725028058,32233.333333333336
96.45282454171343,86.957949869061,66.58008230452674,32266.666666666664
96.41792556836805,86.95622895622895,66.63296683650665,32300.0
96.31611755560871,86.97313740731882,66.39552439607749,32333.333333333336
96.44914494140156,87.0119289643626,66.61393805309734,32366.66666666667
96.15660129155704,86.85691222195648,66.33670174599379,32400.0
96.33834608945229,86.9322530495097,66.5333951207845,32433.33333333333
96.4447619047619,86.95798941798941,66.39242630385489,32466.66666666667
96.31784910754463,86.92882855857208,66.44489275536222,32500.0
97.18249361504527,86.82266078476898,66.77285039857595,32533.33333333333
96.66791987673344,86.6106625577812,66.3020184899846,32566.66666666667
97.20940117902576,86.86037852932051,66.6203847347192,32600.0
96.24106606606607,86.46100600600599,66.20792792792793,32633.33333333333
96.51818318318321,86.5825075075075,66.41181681681681,32666.666666666664
96.40790123456793,86.50033670033669,66.3541488963711,32700.000000000004
96.18090196019615,86.5216941374087,66.00517419799931,32733.333333333336
96.43292628176347,86.72848762383646,66.28089551345366,32766.666666666664
96.22459668971294,86.66588847984198,66.13526982131633,32800.0
96.44535127055306,86.8103139013453,66.36630792227204,32833.333333333336
96.14885929288107,86.62517916865744,66.05419851887244,32866.666666666664
96.16880673674153,86.62610487338749,66.0777293358815,32900.0
96.48248741610738,86.71684743528282,66.27671081016297,32933.33333333333
96.32521645021644,86.61799543049544,65.92935305435307,32966.66666666667
96.33543564237776,86.4362865532119,66.28513003355704,33000.0
95.8977518080657,86.56132324742191,65.73474656882729,33033.33333333333
96.32990468146718,86.75760135135134,66.0693170849421,33066.66666666667
96.52791669833547,86.8101390894581,66.09748422892757,33100.0
95.97271825396824,86.62489478114479,65.82931998556997,33133.333333333336
96.28575937950941,86.72407106782106,66.13652898027898,33166.666666666664
96.11306517556518,86.76088263588264,65.98260882635883,33200.0
96.4125090492278,86.81507902992279,66.27731358590735,33233.333333333336
96.31694161958569,86.85462900188324,66.19341619585687,33266.666666666664
96.26024024024024,86.79339339339339,66.18549549549549,33300.0
96.44261281370657,86.79004283301157,66.29640745656371,33333.333333333336
95.91946248196248,86.49543049543051,65.90662578162579,33366.666666666664
96.08046389824169,86.58594837261505,66.20899364010475,33400.0
95.75639075316928,86.47743475018642,66.00098434004475,33433.33333333333
96.19530122655122,86.33515211640211,66.3330778018278,33466.66666666667
96.19716510341507,86.36780002405003,66.39007635882636,33500.0
95.71735209235209,86.14892977392978,65.87068602693604,33533.33333333333
95.9009139009139,86.22354497354496,66.08372414622414,33566.66666666667
95.65150025327014,86.21772295223623,65.94733470397188,33600.0
95.97379398706829,86.28755102648908,66.20672804743603,33633.333333333336
95.9127003109304,86.32489237024636,65.97896735230806,33666.666666666664
95.93612612612611,86.3436036036036,65.92342342342343,33700.0
96.4623141291915,86.66699777256035,66.3061224489796,33733.333333333336
96.31424482109229,86.59876459510357,66.02806779661017,33766.666666666664
96.43231177606178,86.68828426640927,66.19811776061776,33800.0
95.95589858314692,86.48788963460105,65.92636838180462,33833.333333333336
96.21390007457121,86.6297688292319,66.12307233407904,33866.666666666664
96.42798353909464,86.77604190048633,66.21201646090535,33900.0
96.32921250896915,86.80190145898109,66.03611576177948,33933.33333333333
96.81832821624224,86.92163325507194,66.60678165071337,33966.66666666667
96.28421845574387,86.89461393596987,66.13414689265537,34000.0
96.53636158192093,87.03481732580038,66.39868926553672,34033.33333333333
96.17373136123136,86.79921236171236,66.08893999519,34066.66666666667
96.09057840307841,86.82205988455989,66.04229797979798,34100.0
96.52613718629343,87.05159568050193,66.40563163610038,34133.333333333336
96.14356902356899,86.83652824541711,66.13575757575757,34166.666666666664
96.43567627361877,87.04318643865105,66.47207605835925,34200.0
96.31362114326716,86.96180638603205,66.24588914135374,34233.333333333336
96.6122072072072,87.02836336336338,66.49633633633634,34266.666666666664
96.61487981344177,87.05572829466635,66.559211313083,34300.0
96.44599079167664,86.90132444391294,66.34212807940685,34333.333333333336
96.73954814189187,86.95672960907335,66.45541747104247,34366.666666666664
96.43828828828829,86.80969969969969,66.19097597597597,34400.0
96.60264264264264,86.56864864864866,66.65025525525526,34433.33333333333
95.7147054436987,86.20243102162563,65.97045488441461,34466.66666666667
95.73309470544369,86.15480984340044,66.02920208799404,34500.0
95.91421327367635,86.29795674869499,66.26228187919463,34533.33333333333
95.80397591083413,86.34975731064237,66.00446428571428,34566.66666666667
96.17288439955108,86.48634493078937,66.37671530115975,34600.0
96.01297536474527,86.53629514470222,66.16555548911744,34633.333333333336
96.45130007239382,86.67418255308881,66.37679476351353,34666.666666666664
96.4620686534749,86.68832951254828,66.39011221042472,34700.0
96.2170847457627,86.66867043314501,66.20308851224105,34733.333333333336
96.51887387387389,86.7115015015015,66.47316816816817,34766.666666666664
96.30290301363311,86.64561408753887,66.28686319062426,34800.0
96.63144144144144,86.76343843843843,66.49768768768769,34833.333333333336
96.48247747747749,86.69267267267267,66.31572072072072,34866.666666666664
96.44567567567567,86.70509009009008,66.2718918918919,34900.0
96.77981720559843,86.67373009169884,66.70372828185329,34933.33333333333
96.1659601972102,86.52650012025013,66.01694023569024,34966.66666666667
96.53376870173746,86.71505489864866,66.33224239864866,35000.0
96.28106606606606,86.69539039039041,66.13,35033.33333333333
96.33267489711932,86.77728395061726,66.32025439580995,35066.66666666667
96.40628006253007,86.8013918951419,66.32631373256372,35100.0
96.18265765765766,86.7677927927928,65.93211711711712,35133.333333333336
96.16152125279642,86.77121551081282,66.10454884414615,35166.666666666664
96.09634118967449,86.79980546202768,65.92472876917321,35200.0
96.33976805087916,86.90965955854843,66.16911335578001,35233.333333333336
96.04569724086502,86.76954511558539,65.93005219985085,35266.666666666664
96.04850111856823,86.75841909023117,65.92116331096196,35300.0
96.21364653243849,86.73200596569723,66.10584638329604,35333.333333333336
96.06747415154491,86.685393760615,65.93622061321176,35366.666666666664
96.47777181847978,86.48247966389559,66.42953130121272,35400.0
96.0332528828104,86.29921635231369,65.99334048449093,35433.33333333333
96.80179668304669,86.62046990171991,66.16845823095822,35466.66666666667
96.11136188157036,86.34602363841539,66.21086001069075,35500.0
96.11323546998327,86.45385374312366,65.9798642669218,35533.33333333333
96.96252696456085,86.77254237288133,66.15189522342064,35566.66666666667
96.32891902071563,86.66517514124294,65.98210169491526,35600.0
96.42337359483378,86.70518416646736,66.26464960535758,35633.333333333336
96.449602519874,86.77151642417877,66.1761961901905,35666.666666666664
96.43073346332683,86.77301634918257,66.14766761661917,35700.0
96.41500551235063,86.72941807455082,66.35600846220315,35733.333333333336
96.31208843598223,86.69324513572302,66.18515538869521,35766.666666666664
96.46730583426235,86.77501300631737,66.47004087699739,35800.0
96.24411756000828,86.77680764791192,66.39023884926155,35833.333333333336
96.76850131831257,86.93784455896451,66.87630333173536,35866.666666666664
96.80313698465963,86.94719259348034,66.89673717641419,35900.0
96.40004208754208,86.95911495911496,66.45352332852333,35933.33333333333
96.77401061776062,87.30809604247105,66.78993725868726,35966.66666666667
96.50542305848516,87.21473513902204,66.6431118168744,36000.0
96.68249820831345,87.22373686096512,66.79300047778308,36033.33333333333
96.71822614139104,87.32505191561079,66.62282180154692,36066.66666666667
96.69148583982908,87.32672224395823,66.59114575495832,36100.0
96.93134288111216,87.48770074304889,66.92962008628955,36133.333333333336
96.95645442520443,87.47668650793648,66.80542027417027,36166.66666666666
96.98617269894535,87.50004494247364,66.98803032118887,36200.0
96.67461649089165,87.29053811121763,66.63557646212847,36233.333333333336
96.89210810162993,87.36628116011505,66.79871764141897,36266.66666666666
96.89104446308724,87.39820529721955,66.81557106903163,36300.0
96.60001198465963,87.20526725790987,66.4386085810163,36333.333333333336
96.9204846079846,87.01277657527659,66.77401996151997,36366.66666666666
96.42069504569506,86.76079244829245,66.21242183742184,36400.0
96.76872372372371,86.95632132132134,66.52301801801802,36433.33333333333
96.426452020202,86.83412999037998,66.15342412217413,36466.66666666667
96.58862210424714,86.91964285714286,66.18074324324324,36500.0
96.68064574314577,86.87557118807119,66.5169252044252,36533.33333333333
96.378351972102,86.79435726310726,66.18679353054354,36566.66666666667
96.48067340067341,86.88948746726524,66.53565282454171,36600.0
96.31825697450701,86.77827380952381,66.25217953342954,36633.333333333336
96.58593374218374,86.95083273208273,66.58010161135161,36666.66666666666
96.63588263588264,86.96768278018278,66.6063011063011,36700.0
96.37390639980823,86.96738674496643,66.41980764621286,36733.333333333336
96.60954785954786,87.08023689273689,66.56821188071189,36766.66666666666
96.20378415627995,86.90782298657717,66.22427792425695,36800.0
96.90940214768341,87.1844383445946,67.05310388513513,36833.333333333336
96.22782939189187,86.99438947876448,66.45958011583012,36866.66666666666
96.37139830508477,87.07899515738502,66.4906779661017,36900.0
96.68250605326875,87.24149515738499,66.73858958837772,36933.33333333333
96.09250659156281,87.0538560642378,66.35407178811121,36966.66666666667
96.44473573825505,87.16366550814956,66.69958952540748,37000.0
96.50097703222704,87.18925865800865,66.59687650312651,37033.33333333333
96.57521872003835,87.15671440556088,66.78039609300096,37066.66666666667
96.58251438159157,87.16371045062321,66.7942533557047,37100.0
96.23552572706934,86.9958538404176,66.54817300521998,37133.333333333336
96.35027591349736,87.04056674123787,66.68584638329604,37166.66666666666
96.1117971662938,86.90395227442205,66.42359433258761,37200.0
96.35931507670182,86.97065256471716,66.62297758868648,37233.333333333336
95.98432274247492,86.72446846631628,66.31548614429049,37266.66666666666
95.97328893932156,86.72164655996175,66.2891632823698,37300.0
96.27012661251793,86.58553810320116,66.75161251791687,37333.333333333336
96.23503003003005,86.7096846846847,66.4580930930931,37366.66666666666
96.20505936399977,86.69494660223137,66.60196289004236,37400.0
95.91827541827541,86.4865613121427,65.86640627338302,37433.33333333333
96.06608763017151,86.52838818288812,66.1173666254488,37466.66666666667
96.02106074988136,86.53141314665402,66.16608329378263,37500.0
95.97478201146679,86.6029771858576,65.87788162924032,37533.33333333333
96.26124450710141,86.6711459723743,66.0683744019677,37566.66666666667
95.85569069069072,86.47042042042042,65.62591591591591,37600.0
96.08511904761903,86.66285714285715,66.00958333333334,37633.333333333336
96.00697916666668,86.65293154761903,65.87947916666667,37666.66666666666
95.97604166666666,86.66110119047619,65.83377976190475,37700.0
96.29816964285715,86.79364583333331,66.12644345238095,37733.333333333336
96.09254464285715,86.75058035714285,65.96855654761903,37766.66666666666
96.45744047619048,86.66047619047619,66.39208333333333,37800.0
96.05660687593424,86.5978624813154,65.86408071748879,37833.333333333336
96.37300718388651,86.77479490678945,66.15854042623394,37866.66666666666
96.43718223675327,86.79849123385875,66.20726787347961,37900.0
96.19972404277335,86.73968534877096,66.0015147652114,37933.33333333333
96.70586281348614,86.96687351844301,66.38457821865893,37966.66666666667
96.18348156035816,86.74626932825413,66.0890112032635,38000.0
96.40657198134286,86.84720368342907,66.37819637956117,38033.33333333333
96.2944039655996,86.90674271380794,66.32284698996655,38066.66666666667
96.06336309523807,86.7874107142857,66.2096130952381,38100.0
96.35530992696131,86.8202378631312,66.39652353885148,38133.333333333336
96.07972764221546,86.73236648319511,66.2268848328509,38166.66666666666
96.43270533000273,86.96666867306709,66.52100701236947,38200.0
96.2887506012506,86.98277417027418,66.44372294372296,38233.333333333336
96.64877960694616,86.90405393204323,66.77646191350408,38266.66666666666
96.67254040388839,86.89245192163,66.81599301772657,38300.0
95.87435797897754,86.69850394171046,66.11787804586717,38333.333333333336
96.11233874820827,86.79658385093167,66.27391901576684,38366.66666666666
95.80683035714287,86.68117559523809,65.94949404761904,38400.0
96.40102169223394,86.95788890220518,66.4179799856184,38433.33333333333
96.37185846560848,87.09251743626743,66.18895803270803,38466.66666666667
96.2176114573346,86.9521512464046,66.1310822147651,38500.0
96.51078619367209,87.14699185043146,66.43462368168744,38533.33333333333
96.41435462607862,87.13283497123682,66.30165388302972,38566.66666666667
96.64420541706616,87.22881711409396,66.54161673058485,38600.0
96.47909151034149,87.21267736892739,66.35359547859548,38633.333333333336
96.90039816602317,87.44256756756756,66.71517555501929,38666.66666666666
96.96030405405406,87.44081805019306,66.77429717664093,38700.0
96.62079124579122,87.39908008658008,66.525477994228,38733.333333333336
96.89103835978835,87.30079064454065,66.95257635882636,38766.66666666666
96.68571428571428,87.25393462469734,66.58778753026634,38800.0
96.55809583934584,87.21610449735451,66.72395081770082,38833.333333333336
96.40698653198652,87.19931457431456,66.58688071188071,38866.66666666666
96.37895322270323,87.17753427128427,66.61638708513709,38900.0
96.52427983539093,87.17875046763935,66.81119341563786,38933.33333333333
96.25789141414141,87.07258597883599,66.39491642616643,38966.66666666667
96.55280759765064,87.16866724041611,66.57847533632287,39000.0
96.28583453583454,87.10362554112555,66.36580086580086,39033.33333333333
96.45159932659935,87.21332371332373,66.55904280904282,39066.66666666667
96.51343795093796,87.18840187590187,66.64859908609908,39100.0
96.23035413660412,87.09684644059645,66.36112614237615,39133.333333333336
96.49622715247715,87.11082551707554,66.56380772005771,39166.66666666666
96.23929773929774,87.03697691197692,66.29046416546417,39200.0
96.66674710424714,87.01031611969113,66.85159266409265,39233.333333333336
95.84701178451179,86.87211399711398,66.28237734487735,39266.66666666666
96.10405103764481,86.93380489864866,66.39809061293437,39300.0
96.16194684944685,86.92237854737856,66.61240379990379,39333.333333333336
95.98214739992515,86.96981668537224,66.41919940142161,39366.66666666666
96.28445589645254,86.98969319271332,66.73244247363374,39400.0
96.31334175084177,87.13994107744108,66.5800565175565,39433.33333333333
96.46792328042328,87.18999518999519,66.78183621933623,39466.66666666667
96.50464466089468,87.17843614718616,66.8106210918711,39500.0
96.28622534872535,87.15563371813374,66.57524651274653,39533.33333333333
96.582702020202,87.25084175084177,66.89649470899471,39566.66666666667
96.46203102453104,87.25363756613756,66.7039892977393,39600.0
96.93445342664093,87.48796452702703,66.98828125,39633.333333333336
96.85257299710422,87.46243062258688,66.78054114382239,39666.66666666666
96.84079391891892,87.45475386100388,66.70517615830116,39700.0
97.25948849878937,87.52424334140436,67.23972457627119,39733.333333333336
96.63821051993698,87.43155375106049,66.58912556053812,39766.66666666666
96.65469342150958,87.34800924038592,66.69915900409174,39800.0
96.70314204338871,87.44708217185793,66.5702339110411,39833.333333333336
96.94040116349535,87.55166040479942,66.7920403587444,39866.66666666666
96.92670125482626,87.56331443050193,66.8734013030888,39900.0
96.39262275520555,87.32487620070404,66.47867072370383,39933.33333333333
96.5842282680031,87.42343833900125,66.7246584332677,39966.66666666667
96.6843777902208,87.32502005175623,66.38974560753036,40000.0
97.00720417387085,87.44630994630992,66.63255679922347,40033.33333333333
96.7675257809787,87.28759946248734,66.44426326040676,40066.66666666667
96.73198351225255,87.3044797753318,66.39072337727046,40100.0
96.89543617277992,87.40723033301157,66.65946247586872,40133.333333333336
96.74162222760876,87.29194946067145,66.42785722942672,40166.66666666666
96.95214045214044,87.13311688311687,67.07987614237615,40200.0
96.32736592111591,86.83328823953825,66.52631974506974,40233.333333333336
96.43520793384468,86.89721656279961,66.76730285234899,40266.66666666666
96.6498015873016,87.05068542568544,66.869227994228,40300.0
96.35499338624341,86.9573563011063,66.49234908609908,40333.333333333336
96.49222495206136,86.9238225071908,66.7157987775647,40366.66666666666
96.33260601318209,86.82684262798327,66.38808800072229,40400.0
96.62017335299606,86.98493694886689,66.64488217413549,40433.33333333333
96.24610308170092,87.0033892737697,66.48302376970855,40466.66666666667
96.24504300047778,86.97097467749641,66.5158265647396,40500.0
96.45832835642618,87.08625477783087,66.72493131868131,40533.33333333333
96.35285834132307,87.17326821668264,66.37532957813997,40566.66666666667
96.43927675585286,87.16685081223127,66.57236920688007,40600.0
96.19468167701862,87.17461478738652,66.37008779264214,40633.333333333336
96.64353525203592,87.05112707530333,66.8490483974984,40666.66666666666
96.678959761237,87.0534067219581,66.90214016827393,40700.0
96.30387104506231,87.00910834132307,66.62541946308724,40733.333333333336
96.50020973154362,87.14252756471716,66.81966083413229,40766.66666666666
96.52818362193364,87.29147126022127,66.68685365560366,40800.0
96.69476010101008,87.40513768638769,66.80436808561811,40833.333333333336
96.27161732981784,87.23644235378715,66.40165088686481,40866.66666666666
96.24508628954935,87.24490651965483,66.3531279961649,40900.0
96.4510726270374,87.34105345158197,66.52387943432406,40933.33333333333
96.3562614741024,87.2859572034791,66.32748969211787,40966.66666666667
96.28207118967987,87.18690277114193,66.47309483994266,41000.0
96.01131748686096,87.13037505972288,66.29974916387961,41033.33333333333
96.14840579710146,87.19942028985508,66.55438127090301,41066.66666666667
96.16991452991456,87.2211668524712,66.58790040876998,41100.0
96.0690380313199,87.24305741983594,66.38161073825503,41133.333333333336
96.44577181208055,86.98850111856821,66.77400447427293,41166.66666666666
96.0815855704698,86.76968480345158,66.12778643336529,41200.0
96.2628187919463,86.87069351230423,66.42720357941836,41233.333333333336
96.07932346596355,86.87714225790987,66.21954398370086,41266.66666666666
96.08312859539787,86.85140520134226,66.26577480824544,41300.0
96.40065836940838,87.04564995189995,66.51050685425686,41333.333333333336
96.23021885521887,87.0147607022607,66.24299543049544,41366.66666666666
96.24655100334448,87.00562888198758,66.46349438604875,41400.0
96.21537931447745,87.11225131831257,66.43961229626078,41433.33333333333
96.52431387823586,87.20192653403645,66.72128175934803,41466.66666666667
96.53718240651965,87.22036792905081,66.7599173058485,41500.0
96.03345185185185,87.01991111111111,66.52069629629631,41533.33333333333
96.31715838509315,87.11280160057333,66.63092749641662,41566.66666666667
96.1656712852365,87.12607501194458,66.3975752508361,41600.0
96.59628822264692,87.11817666029621,66.87707537028189,41633.333333333336
96.52558160532101,87.24358202666504,66.54335329701749,41666.66666666666
96.48118999608751,87.23975983387005,66.48957173383093,41700.0
96.70463779456465,87.36145303518222,66.79656604568574,41733.333333333336
96.29128344481606,87.26399008600094,66.55213807931199,41766.66666666666
96.66977768456377,87.46801593959732,66.77026905560882,41800.0
96.6776394901395,87.52347883597885,66.6526875901876,41833.333333333336
97.03744872104248,87.75547478281855,66.94786136583012,41866.66666666666
97.0699806949807,87.77388996138995,66.97074083011583,41900.0
96.85088380791504,87.7004856418919,66.69481479247105,41933.33333333333
97.02934966216215,87.74435931467183,66.93934000965251,41966.66666666667
96.59102934102934,87.4754389129389,66.55534511784512,42000.0
96.69931457431456,87.4675024050024,66.66059403559404,42033.33333333333
96.51668470418473,87.34096921596922,66.49179292929293,42066.66666666667
96.51256613756615,87.30414261664262,66.49194324194326,42100.0
96.6492689357622,86.94529002876318,66.8935162991371,42133.333333333336
96.31571247586872,86.86011402027027,66.55827702702703,42166.66666666666
96.41854557479557,86.91701238576239,66.7628817941318,42200.0
96.20137385762386,86.89918530543531,66.56708453583454,42233.333333333336
96.6272573021452,87.00775663555933,66.75622651799782,42266.66666666666
96.65098169918798,87.0158768634105,66.83697430614471,42300.0
96.26010478476843,86.82224336035995,66.28741827844966,42333.333333333336
96.38215908748907,86.9832967165257,66.48316128449757,42366.66666666666
95.98543725722513,86.80672495763157,66.03822907449347,42400.0
96.22453019781929,86.9741590053542,66.22093075573287,42433.33333333333
95.973319135534,86.94983277591975,65.93141563057726,42466.66666666667
96.15619827248925,87.05125349866074,66.06926595840733,42500.0
96.25717581495684,87.04807346596355,66.1941514860978,42533.33333333333
96.20623273089642,87.08731560749494,65.87132913590312,42566.66666666667
96.65289802789805,87.07575757575758,66.49143217893219,42600.0
96.0987770320656,87.0124832214765,66.1449217002237,42633.333333333336
96.44829231916479,87.06639821029083,66.50407158836688,42666.66666666666
96.4565846383296,87.09187173750931,66.48527964205816,42700.0
96.29688292319165,87.05950782997763,66.32511558538404,42733.333333333336
96.55073825503356,87.17615212527964,66.63543624161073,42766.66666666666
96.35261744966442,87.10984340044745,66.40875466070096,42800.0
96.55136009978024,87.26523430539879,66.71181029874681,42833.333333333336
96.54797234885729,87.29461279461279,66.59896904144692,42866.66666666666
96.60490834268612,87.29750841750841,66.55191919191918,42900.0
96.59369246302784,87.24060105719545,66.7701342281879,42933.33333333333
96.34586030765577,87.14781433747105,66.5095474253133,42966.66666666667
96.45634614242444,87.18670190651541,66.71725960681832,43000.0
96.04290111581379,86.96659957972004,66.46655518394651,43033.33333333333
95.75404622551365,86.46579371715241,66.28320592451027,43066.66666666667
95.81552859306808,86.45268983307587,66.2347886077658,43100.0
95.61904264214044,86.3841674629718,66.1769141184902,43133.333333333336
95.84182393693264,86.53390766841854,66.41161012900143,43166.66666666666
95.62113712374584,86.50237086584913,66.12673355629877,43200.0
96.01572204968944,86.57290671285236,66.36575788342093,43233.333333333336
95.88122611084567,86.54049211657906,66.13869147157189,43266.66666666666
95.88044971333014,86.55736383182034,66.11471273291924,43300.0
96.15504596787498,86.6910928806035,66.33132864406018,43333.333333333336
95.885989010989,86.65097945532726,66.08695652173913,43366.66666666666
96.33405062148252,86.88772684864719,66.39601829837181,43400.0
96.06724892138064,86.80861996644295,66.2473783557047,43433.33333333333
96.33460739759836,86.9654196888073,66.41559575044391,43466.66666666667
96.41540012640324,86.96519396876032,66.47965509976828,43500.0
96.44946067143377,87.04494909707914,66.31393164464913,43533.33333333333
96.49539842873176,86.84926300037411,66.69180695847362,43566.66666666667
95.97707680835195,86.79002237136463,66.10161073825503,43600.0
96.24228187919462,86.9226696495153,66.3725130499627,43633.333333333336
96.23906399808243,86.96731184084372,66.21221836049854,43666.66666666666
96.21356663470759,86.9449904122723,66.19825623202301,43700.0
96.39940343027591,87.06953020134226,66.64286353467561,43733.333333333336
96.45679012345678,87.1705948372615,66.62687616909838,43766.66666666666
96.52948226270374,87.1526246404602,66.72992569511025,43800.0
96.4148190316395,87.16517857142857,66.52603667305848,43833.333333333336
96.31815476190478,87.12267857142857,66.69196428571429,43866.66666666666
96.36278273809522,87.12183035714285,66.71697916666666,43900.0
96.04,87.00684523809522,66.31345238095238,43933.33333333333
96.26755852842808,87.12715002388914,66.54616579073101,43966.66666666667
96.01264957264958,87.07421776291342,66.40057971014492,44000.0
96.46087008628956,86.95565675934803,66.85708293384468,44033.33333333333
95.87649808245443,86.70889261744966,66.33718839884946,44066.66666666667
96.03339947089948,86.83709114959116,66.40034271284271,44100.0
96.08251438159157,86.7900886864813,66.57730105465005,44133.33333333334
95.8926773729626,86.76390220517739,66.42174017257909,44166.66666666666
96.03061025541041,86.69886167644016,66.54128110142928,44200.0
95.70558110367891,86.59646739130434,66.23577102245582,44233.33333333334
96.0030458671763,86.69490563784042,66.37750836120401,44266.66666666666
96.0210075250836,86.70889572384138,66.39824713330148,44300.0
95.91056447746885,86.5887763662512,65.99727348993288,44333.33333333334
96.262598873442,86.81143636145733,66.27404422339406,44366.66666666666
96.0380662751678,86.76379733940556,65.97928151965483,44400.0
96.25743048897414,86.8835690316395,66.19672818791946,44433.33333333333
96.17431758056759,86.88935485810488,65.96186568061569,44466.66666666667
96.1794131794132,86.89908008658008,65.96978715728716,44500.0
96.15281593406591,86.6144141184902,66.52602424749163,44533.33333333333
95.74247962607862,86.60046140939596,66.14312679769894,44566.66666666667
95.9995655560882,86.74249460690315,66.3978157957814,44600.0
95.88124700383509,86.73311661073826,66.2835720278044,44633.33333333334
96.21122962607862,86.87128475551296,66.54350431447746,44666.66666666666
96.21043564237776,86.91411493288591,66.53797639022052,44700.0
95.82875955566172,86.7564948638318,66.18417044911611,44733.33333333334
96.06875597228857,86.84243609651216,66.3582626612518,44766.66666666666
95.82805781175344,86.7488652651696,66.09552675585284,44800.0
96.0876582656474,86.8578446010511,66.39273769708552,44833.33333333334
95.79701684185379,86.73502448638321,66.10859113712375,44866.66666666666
95.80690097945532,86.70149008600094,66.08968884376492,44900.0
95.89559523809523,86.64130952380953,66.19898809523811,44933.33333333333
95.67404781680115,86.53970396298054,65.98269162316089,44966.66666666667
96.2564948638318,86.53540074056377,66.50067188246535,45000.0
95.77437380153404,86.56302432885906,66.05002097315436,45033.33333333333
96.06112176414189,86.625,66.38698465963566,45066.66666666667
96.07749580536913,86.65917126078621,66.4102498801534,45100.0
95.69017259913996,86.56532190635453,66.19438306258958,45133.33333333334
95.93923196368848,86.66767200191113,66.49798435260391,45166.66666666666
95.95587925482289,86.71339573238632,66.29727330183285,45200.0
96.12730704697987,86.85961469319271,66.54690496164909,45233.33333333334
95.94155980345158,86.82806507670182,66.21842042186003,45266.66666666666
95.92123082454458,86.81720397890699,66.21007610258869,45300.0
96.21800095877278,86.89441514860977,66.41911852828379,45333.33333333334
95.95977628635346,86.82086502609992,66.17903057419835,45366.66666666666
96.29086768935758,86.94552972195591,66.4416347075743,45400.0
96.36228354978356,87.04578523328523,66.30811087061089,45433.33333333333
96.46474272930651,86.93528709917973,66.57621178225205,45466.66666666667
96.51560029828484,86.96833706189409,66.5557494407159,45500.0
95.99728560775542,86.87841909023115,66.02353467561521,45533.33333333333
96.20244593586875,86.95770320656227,66.20662192393736,45566.66666666667
96.14932140193883,86.97935868754662,66.08167039522743,45600.0
96.62434717545828,87.2351215862327,66.54871679760568,45633.33333333334
96.54945945945946,87.36163663663662,66.40884384384384,45666.66666666666
96.70541619585687,87.453197740113,66.45003389830508,45700.0
96.73863363363363,87.43216216216216,66.633003003003,45733.33333333334
96.52562186079884,87.36354939009806,66.51270629036118,45766.66666666666
96.6868572111935,87.38307223152357,66.63567328390337,45800.0
96.70931826741995,87.3639924670433,66.42085122410546,45833.33333333334
96.69601197156751,87.28365132809576,66.57087916199026,45866.66666666666
96.70377852600076,87.2905499438833,66.58765432098764,45900.0
96.60599802460268,87.2581335488312,66.50130196641824,45933.33333333333
96.74230619400078,86.92491984058016,66.79028198136106,45966.66666666667
96.16549437749205,86.70052118334006,66.34837148873258,46000.0
96.3094982399618,86.69038243541556,66.51854006324203,46033.33333333333
96.11586004609259,86.67217383496452,66.18487923139085,46066.66666666667
96.10824279428932,86.64360539941939,66.17777079404986,46100.0
96.5836723010636,86.86831480309742,66.51881647533821,46133.33333333334
96.54929171595836,86.99736099736099,66.36412169745503,46166.66666666666
96.64265780932449,87.04355871022537,66.58514575181242,46200.0
96.35360928057337,86.95124358468217,66.29135412554284,46233.33333333334
96.99899483499833,87.15597068011013,66.56938731327128,46266.66666666666
96.91514926297536,87.01436888393411,66.46491391056608,46300.0
96.135526831179,86.80746632920547,66.21627647714604,46333.33333333334
96.86720712667416,87.03302868239756,66.50598770093862,46366.66666666666
96.02237668161436,86.7662331838565,66.20502242152466,46400.0
97.00267281105991,86.94024577572965,66.67145929339479,46433.33333333333
96.46288786482334,86.9310291858679,66.01035330261136,46466.66666666667
96.17754274741688,86.74784357950564,65.95318357767685,46500.0
96.04974588938715,86.83844544095665,66.26559043348281,46533.33333333333
95.79306863065365,86.8967718943961,66.20054643185935,46566.66666666667
96.13171230440969,87.0151878852537,66.53202050734946,46600.0
96.03223025005205,86.98459845984598,66.19706835548419,46633.33333333334
96.41830669070214,87.07842319324226,66.53746107891483,46666.66666666666
96.44332047137344,87.10960475544893,66.58029289513281,46700.0
96.37810720419417,87.02317032751816,66.23409864714213,46733.33333333334
96.43082596751074,87.02623327759197,66.52611383182035,46766.66666666666
96.20579013377926,86.96143394648828,66.27178392259914,46800.0
96.49039398893171,87.01268803335483,66.50407186886032,46833.33333333334
96.4678775799852,86.99433799882229,66.31199891289577,46866.66666666666
96.45552686808293,86.9981126662741,66.29004544699612,46900.0
96.57366822991823,86.79522907647906,66.77331349206351,46933.33333333333
95.74967152412806,86.53311634018154,66.22787267080744,46966.66666666667
96.09498027805692,86.64145057516085,66.5043118316661,47000.0
95.79256781865476,86.63598662207359,66.35769602378298,47033.33333333333
95.90528273809522,86.5640029761905,66.51933035714286,47066.66666666667
96.0055654761905,86.5507142857143,66.56919642857143,47100.0
95.70192825112109,86.55289985052319,66.1596711509716,47133.33333333334
96.1221183707597,86.73523351648352,66.53372849976111,47166.66666666666
95.83802083333332,86.58046130952381,66.25126488095239,47200.0
96.09361607142857,86.7165625,66.41757440476191,47233.33333333334
96.21927432885906,86.8192863135187,66.23743108820709,47266.66666666666
96.20941694630872,86.82434983221478,66.22260007190795,47300.0
96.47955117449663,86.94185941994247,66.42280381112177,47333.33333333334
96.3909165731388,86.97551814440702,66.29976805087914,47366.66666666666
96.58549556567593,86.83465663950143,66.69764201821668,47400.0
96.13448286193672,86.84589225790987,66.28725731064236,47433.33333333333
96.54096520763187,87.08843995510662,66.69427609427609,47466.66666666667
96.57890011223343,87.1138047138047,66.73263000374111,47500.0
96.1993288590604,86.99136465324385,66.42662192393736,47533.33333333333
96.6482454171343,87.21719416386081,66.73635615413393,47566.66666666667
96.49773027898027,87.17452801827801,66.39043710918712,47600.0
96.488322147651,87.12981357196121,66.60882923191646,47633.33333333334
96.5108676046176,87.14635942760944,66.38445466570467,47666.66666666666
96.48262385762386,87.15280784030784,66.38422919672921,47700.0
96.78923160173159,87.15957190957191,66.65073352573353,47733.33333333334
96.62585678210678,87.14705086580086,66.4823082010582,47766.66666666666
96.6333933933934,87.11382882882883,66.54854354354354,47800.0
96.22847255512943,86.8350461409396,66.24096656279961,47833.33333333334
96.35520186335405,86.49172838031534,66.68530518394648,47866.66666666666
96.39169428738545,86.54234593637985,66.65770805525143,47900.0
95.88601090604028,86.39848993288591,66.0570919223394,47933.33333333333
96.09896332694152,86.46501977468841,66.2740592042186,47966.66666666667
95.9630423058485,86.4828319750719,66.02760965963566,48000.0
96.35585016835016,86.7054322991823,66.31415343915343,48033.33333333333
95.97789749345304,86.70341937897493,65.92125701459034,48066.66666666667
96.00459408903852,86.68567153011597,65.96255892255891,48100.0
96.2888739244295,86.81973812196034,66.17985783763561,48133.33333333334
96.0162991371045,86.73040508149569,65.89387583892618,48166.66666666666
96.34353956228956,86.91544913419914,66.16623075998075,48200.0
96.11812380153404,86.83348813518695,65.97766359060402,48233.33333333334
96.2640520134228,86.94789669223394,66.19280321188877,48266.66666666666
96.31885186960692,86.95403883029722,66.23693672099711,48300.0
96.12523969319271,86.90544103547458,66.01755752636625,48333.33333333334
96.4468480345158,86.82909875359539,66.33994487056567,48366.66666666666
95.90659209545116,86.80529455630126,65.80034302759135,48400.0
96.36840840840841,86.9986936936937,66.05788288288288,48433.33333333333
96.1348198198198,86.93334834834835,65.86402402402402,48466.66666666667
96.07943135054244,86.86391320613542,65.85776281331836,48500.0
96.26055194805195,86.83659511784512,65.99730940355941,48533.33333333333
95.91287691732136,86.69717919940142,65.68460905349794,48566.66666666667
96.08290310512531,86.82799850355406,66.00565656565657,48600.0
95.80396718866515,86.74290827740492,65.83624161073826,48633.33333333334
96.3804144546332,86.94210002413128,66.25505248552123,48666.66666666666
96.35606606606605,86.95372372372374,66.3231981981982,48700.0
96.34898607748184,86.94375,66.15965496368038,48733.33333333334
96.45769486003859,86.9595650337838,66.43756032818533,48766.66666666666
96.04627010849232,86.71055742611297,66.21809203142536,48800.0
96.50555555555556,86.59872372372372,66.75516516516518,48833.33333333334
95.99133557800225,86.40951739618406,66.3616760194538,48866.66666666666
95.86909768829231,86.36359433258761,66.32025354213273,48900.0
96.14841163310965,86.48428038777031,66.55222967934378,48933.33333333333
96.18219063794285,86.65796609159443,66.45296624057686,48966.66666666667
96.37908584368765,86.68998242007092,66.66301659664492,49000.0
96.4301951951952,86.80818318318317,66.3606156156156,49033.33333333333
96.61218106995884,86.94747474747473,66.60646464646464,49066.66666666667
96.64288814066592,86.95573512906846,66.69263000374112,49100.0
96.38133688878237,86.78695769415148,66.27492809204219,49133.33333333334
96.81285285285286,87.06364864864867,66.71894894894895,49166.66666666666
96.39483726150392,86.89526374859707,66.38530490086045,49200.0
96.6641825664048,87.02011223344557,66.66605312383089,49233.33333333334
96.53267797017796,86.98826058201055,66.48304473304474,49266.66666666666
96.5193753006253,86.99588143338144,66.47682178932179,49300.0
96.90624624624624,87.02662162162163,67.08807807807807,49333.33333333334
95.95650687476775,86.63982162764772,66.51285024154589,49366.66666666666
96.16995912300258,86.76230397621703,66.71678929765886,49400.0
96.11170768083521,86.74059656972408,66.53882177479493,49433.33333333333
96.41351230425056,86.88331096196869,66.79970171513796,49466.66666666667
96.42265473527218,86.89233407904548,66.8061595824012,49500.0
96.24424736337488,86.8628355704698,66.47315436241611,49533.33333333333
96.4616940316395,86.90248981303932,66.63271512464047,49566.66666666667
96.57595480225989,87.04518267419962,66.44569491525424,49600.0
96.84408292978209,87.1563710653753,66.59565677966101,49633.33333333334
96.62044444444444,87.0924143126177,66.43121657250471,49666.66666666666
96.50259411196913,86.94838923745172,66.35847007722008,49700.0
96.64532734754957,87.02659184436962,66.65571268237935,49733.33333333334
96.57539039039038,86.95960960960959,66.45397897897898,49766.66666666666
96.5918568232662,86.72605518269947,66.80366890380313,49800.0
96.44073573573573,86.7762162162162,66.45487987987988,49833.33333333334
96.563993993994,86.86533033033031,66.65954954954955,49866.66666666666
96.57295795795795,86.86864864864864,66.69451951951952,49900.0
96.53642184557438,86.92254613935971,66.52085875706214,49933.33333333333
96.88009424640877,87.08345367484989,66.644767044159,49966.66666666667
96.69368946731235,87.05273910411623,66.42531779661017,50000.0
96.86101694915254,87.19956113801453,66.65223970944311,50033.33333333333
96.89191063174114,87.2468721109399,66.28359013867488,50066.66666666667
96.88317411402157,87.22309707241911,66.24810477657935,50100.0
97.17808936825884,87.43123266563944,66.54298921417565,50133.33333333334
96.79487297214571,87.21983471074381,66.37191613100704,50166.66666666666
96.67846620971622,87.26734607984608,66.62868265993265,50200.0
96.48399551066215,87.2199925177703,66.45906472128694,50233.33333333334
96.74001564992331,86.95935534354591,66.77676287356668,50266.66666666666
96.73690071327536,86.98043759593102,66.81385620128209,50300.0
96.325087916199,86.93714927048259,66.38593340815561,50333.33333333334
96.3897539149888,86.89275167785235,66.54271439224459,50366.66666666666
96.3729741863075,86.92610549943882,66.394986906098,50400.0
96.62626262626264,86.991822991823,66.58010161135161,50433.33333333333
96.36031445406445,86.89242123617123,66.27066798941799,50466.66666666667
96.30854677729677,86.8825006012506,66.23420214045214,50500.0
96.43882275132276,86.96563852813853,66.47790404040404,50533.33333333333
96.29093013468014,86.90005711880713,66.17349086099087,50566.66666666667
96.35901546021091,86.95204638063278,66.41436960690315,50600.0
95.92380852842808,86.74108635929285,66.0856127568084,50633.33333333334
96.33161553211887,86.93923777564716,66.38977109300096,50666.66666666666
96.35694810642376,86.96376138542665,66.42445170182167,50700.0
96.20906846240179,86.94611298166853,66.21723905723907,50733.33333333334
96.3068754660701,86.88674123788219,66.61231916480239,50766.66666666666
95.95785054323292,86.87683209438107,66.02285791675446,50800.0
95.94849709186165,86.90427562935665,66.38485104115793,50833.33333333334
96.01977805620187,87.04737187518644,66.23987232265378,50866.66666666666
96.00315166651801,87.06912853447506,66.32200517349033,50900.0
96.61558885464035,87.139835810419,66.5174260689108,50933.33333333333
96.01427673520695,86.97213492562332,66.22845769357397,50966.66666666667
96.52349095101565,87.12042051608793,66.51147620564632,51000.0
96.21614405558336,87.04414508715244,66.20088290174304,51033.33333333333
96.41985258868648,87.23660714285714,66.59357023010546,51066.66666666667
96.54175155800571,87.35880572866729,66.73140879674017,51100.0
96.37711800644057,87.31177957685014,66.49569627110483,51133.33333333334
96.59046368014978,87.40675816460569,66.65116033277468,51166.66666666666
96.1143722722978,87.17245826896831,66.28570571561409,51200.0
96.26412556053812,86.89295964125559,66.8167264573991,51233.33333333334
95.72595238095238,86.71014880952382,66.43699404761905,51266.66666666666
95.6659375,86.72677083333332,66.41370535714286,51300.0
95.82077598481251,86.67530849549122,66.60032036070243,51333.33333333334
95.78613887937072,86.67981168898886,66.39522965302504,51366.66666666666
96.57622526636223,87.01642313546421,66.72689497716895,51400.0
96.72761837325287,87.09452927775381,66.40811834246661,51433.33333333333
96.48385067114091,87.12922459252155,66.7640819750719,51466.66666666667
96.56699370993469,87.1597345532248,66.79286423691576,51500.0
96.18936064909941,86.9311006793947,66.38972959191325,51533.33333333333
96.55378156318658,87.12431155385681,66.64605591837963,51566.66666666667
96.109457118968,86.91320771619684,66.14481306736741,51600.0
96.36598827181787,86.99938509531023,66.36274877394004,51633.33333333334
96.17329813878851,86.89431138173582,66.13919342501913,51666.66666666666
96.67514037617748,87.06392869197019,66.13858120339971,51700.0
96.43965685318777,86.89299158630413,66.55168948812934,51733.33333333334
96.07764769615072,86.91220994973969,66.00938995395312,51766.66666666666
96.35856381858127,87.02871158997202,66.30755108797062,51800.0
96.19734240172579,87.08816215244488,66.13993588207094,51833.33333333334
96.47370865292423,87.20039848993288,66.42930548897411,51866.66666666666
96.49797758868648,87.21771632310642,66.45537212368168,51900.0
96.07214524605827,87.05061514572384,65.96165790731007,51933.33333333333
96.1568005952381,87.09715773809522,66.2143005952381,51966.66666666667
95.95883408071751,87.09593423019432,66.00218236173393,52000.0
96.33120866265727,87.28771540411236,66.33885747709104,52033.33333333333
96.10895811149271,87.21103228999506,66.17539781333893,52066.66666666667
96.09505526643369,87.2088576270678,66.1802120671296,52100.0
96.26860367892976,87.23399426660295,66.5227394887721,52133.33333333334
96.40248316305494,87.18180846352377,66.25048487347475,52166.66666666666
96.61051297322888,86.94363250408516,66.59660054061483,52200.0
96.10125074449076,86.71020601395823,66.009758555917,52233.33333333334
95.83500747384157,86.55727952167416,66.22068759342302,52266.66666666666
96.30652968036527,86.74992389649924,66.25713850837138,52300.0
95.62379464285715,86.5021875,66.00474702380953,52333.33333333334
95.95451505016723,86.67922705314008,66.38959494611669,52366.66666666666
96.1754954954955,86.89510510510509,66.2586036036036,52400.0
96.44258258258257,87.00621621621622,66.52127627627627,52433.33333333333
96.18445192667414,86.91913206135428,66.29494949494949,52466.66666666667
96.1722708567153,86.90892630003741,66.27049756827536,52500.0
96.29339944870566,86.91174796260786,66.34130812559923,52533.33333333333
96.16695226070226,86.87990019240021,66.10021344396344,52566.66666666667
96.38440957190956,86.99848184223184,66.43419312169314,52600.0
96.78747721866988,87.17335433849196,66.27600160627685,52633.33333333334
96.9525891262853,87.02616833938797,66.51025183178375,52666.66666666666
96.98517640539372,87.03886768056154,66.49548980974077,52700.0
96.70206653692892,87.06715472770522,66.03073548945109,52733.33333333334
96.85254687548266,87.19641367806507,66.22606801964601,52766.66666666666
96.53150975925126,87.07322517086384,66.10074810664368,52800.0
96.8963762434082,87.29412849960795,66.44012422551235,52833.33333333334
96.88553622115265,87.46498210539306,66.4399296556831,52866.66666666666
96.95543020084305,87.49838829655344,66.40459955368213,52900.0
97.1775268419104,87.56614834012095,66.69458842404048,52933.33333333333
96.92048929663609,87.4364130602663,66.37929756278379,52966.66666666667
96.52453859060402,87.39414549376798,66.64582334611697,53000.0
96.16447682752028,87.24844720496893,66.30243669374103,53033.33333333333
96.54498741610738,87.44018156759346,66.67328319750719,53066.66666666667
96.52362416107384,87.43554064131244,66.75563012677107,53100.0
96.65414789617235,87.3470472863228,66.31903711194876,53133.33333333334
96.39794871794872,87.14733556298773,67.0795540691193,53166.66666666666
95.87181975633062,86.96961598184423,66.64818741041567,53200.0
95.91098214285714,86.96851190476191,66.76473214285714,53233.33333333334
96.0724384787472,87.19867263236391,66.74581655480982,53266.66666666666
95.97982859531773,87.08380613951266,66.68034818442426,53300.0
96.1966674629718,87.17006091734352,66.91062470138557,53333.33333333334
96.06013182050744,87.12249074547806,66.54558040148072,53366.66666666666
95.99194319880421,87.08760837070255,66.67257100149477,53400.0
96.34771869534536,87.17303856893005,66.35388604215888,53433.33333333333
96.19505976573632,87.16677415000675,66.69175277831937,53466.66666666667
96.04025411061285,87.05956651718985,66.62533632286996,53500.0
96.07316339121799,87.04351882505192,66.44809943720469,53533.33333333333
96.22781339884943,87.12681267976988,66.69785174976029,53566.66666666667
95.96013422818793,87.02748695003729,66.53868754660701,53600.0
96.18444444444445,86.94545861297539,66.87968680089485,53633.33333333334
95.96846440596441,86.9939874939875,66.41850048100048,53666.66666666666
95.98287938912941,86.96366943241944,66.37519540644541,53700.0
96.25414862914863,87.05823112073112,66.59331409331409,53733.33333333334
96.16304413179415,87.08118386243385,66.55289502164503,53766.66666666666
96.35384707574305,87.07316634707573,66.76450143815916,53800.0
95.98236607142857,86.91546130952379,66.42090773809525,53833.33333333334
96.2590625,87.03072916666666,66.65686011904761,53866.66666666666
96.29421130952379,87.05822916666666,66.66001488095237,53900.0
95.96129464285713,86.93087797619047,66.35184523809525,53933.33333333333
96.0751216184148,87.00642204556242,66.56764653535835,53966.66666666667
96.09908026755852,87.06061872909699,66.3522605112279,54000.0
96.1,87.03767857142857,66.45202380952381,54033.33333333333
96.19558964525407,87.1963087248322,66.28859060402684,54066.66666666667
96.10526472781505,87.1939000745712,66.29097688292319,54100.0
96.26609992542878,86.97491424310215,66.75986577181207,54133.33333333334
95.4842066146414,86.67371237458192,66.16985507246378,54166.66666666666
95.69606837606838,86.71293942772203,66.42097361575621,54200.0
95.52444444444444,86.64060943887031,66.2468524712003,54233.33333333334
95.79693794128578,86.76612411742849,66.4982088442958,54266.66666666666
95.85566703827574,86.76078781122256,66.5494314381271,54300.0
95.79516778523492,86.7883370618941,66.30144668158091,54333.33333333334
96.54442094940391,86.96343967392971,66.45187092029053,54366.66666666666
96.69648586943107,87.04631000863878,66.25752807602122,54400.0
96.8993119832161,87.11634579785265,66.44832160928051,54433.33333333333
96.68253992628992,87.01168611793614,66.23639434889435,54466.66666666667
96.6609797297297,87.00790847665847,66.20448402948402,54500.0
96.61852980212356,87.00790299227799,66.5538881515444,54533.33333333333
96.44518846200458,86.87890861713731,66.19599139498243,54566.66666666667
96.70516173641174,86.81822691197692,66.56948953823954,54600.0
96.20160119715678,86.75087167976056,66.08043396932285,54633.33333333334
96.55796055796057,86.88353775853777,66.3391354016354,54666.66666666666
96.64409415530493,86.90030348326313,66.31287463574459,54700.0
96.51555555555555,87.05273273273274,66.21276276276275,54733.33333333334
96.6265768799102,87.13265993265993,66.44203516647961,54766.66666666666
96.26878448918717,87.0297091722595,66.1751528709918,54800.0
96.55036553211887,87.18441395014379,66.41739573346116,54833.33333333334
96.38430309204216,87.11285055129434,66.27572207574305,54866.66666666666
96.3661013902205,87.10333772770853,66.25296620325982,54900.0
96.63310462607862,87.21837547938637,66.56119666826461,54933.33333333333
96.47206076222434,87.18359000479386,66.37660294822626,54966.66666666667
96.51224459358689,87.23886651752424,66.5448769574944,55000.0
96.23698732289336,87.11060402684566,66.29404921700224,55033.33333333333
96.09935340022295,86.58993682645857,66.05480490523969,55066.66666666667
96.09135637309551,86.59472315124489,66.04246748420663,55100.0
96.05809543717152,86.60321607740086,65.90344302436694,55133.33333333334
96.34945563012677,86.7882923191648,66.20939597315436,55166.66666666666
96.7647402487585,86.92105222698831,65.89674523007858,55200.0
96.6202034490023,86.90900472507298,66.28117193848377,55233.33333333334
96.26874334478157,86.75645274982378,65.98849678299864,55266.66666666666
96.25984972329286,86.76648619463984,65.97654363573646,55300.0
96.60543504314477,87.0011085810163,66.36472315436241,55333.33333333334
96.2287087912088,86.83244744386049,66.16952341137123,55366.66666666666
96.52898789549377,87.03785654362416,66.42855644774689,55400.0
96.31220038350912,86.91634707574305,66.22390340364333,55433.33333333333
96.74093614718616,87.17308501683502,66.61530483405484,55466.66666666667
96.74882756132757,87.1981721981722,66.65464165464165,55500.0
96.46001683501684,87.08585858585859,66.38218494468495,55533.33333333333
96.74626977468841,86.85676833652924,66.90668444391179,55566.66666666667
96.47775372775374,86.83802308802309,66.6323051948052,55600.0
96.69888888888887,86.94124624624624,66.83887387387388,55633.33333333334
96.37537452061359,86.86782418504312,66.41537332214763,55666.66666666666
96.36177193192712,86.8358251438159,66.38917186001918,55700.0
96.788946007696,87.07210497835499,66.68324615199616,55733.33333333334
96.50145803270806,87.02707130832131,66.26877405002404,55766.66666666666
96.73875661375662,87.2058682058682,66.57233044733044,55800.0
96.56052552552549,87.22342342342344,66.39246246246246,55833.33333333334
96.99175894538608,87.4960903954802,66.63664030131828,55866.66666666666
96.86702702702702,87.4299099099099,66.61602102102103,55900.0
96.31121164908916,87.17956016299135,66.13801833652924,55933.33333333333
96.55162392138064,87.30761625119847,66.41188279002876,55966.66666666667
96.57426948051949,87.35180675805677,66.24168771043772,56000.0
96.91895141895142,87.16209716209717,66.83618927368927,56033.33333333333
96.69799710424714,87.12119932432432,66.49506817084942,56066.66666666667
96.63100265444015,87.14379222972973,66.43748491795367,56100.0
96.79739094985732,87.10970693481904,66.5460131962374,56133.33333333334
96.54691257816258,87.08103354978356,66.41196188071189,56166.66666666666
96.73235329485331,87.14399951899952,66.66621572871573,56200.0
96.28282298657714,87.01322806807285,66.28719738734421,56233.33333333334
96.42647278150629,87.10092468307234,66.52887397464578,56266.66666666666
96.43841909023115,87.12014914243102,66.53753914988813,56300.0
96.43545574795576,87.12217412217413,66.34253246753246,56333.33333333334
96.6233315295815,87.13235028860029,66.50503547378548,56366.66666666666
96.1868857861937,86.89961349472675,66.20108760786194,56400.0
96.3287392138063,86.98465963566635,66.3594798657718,56433.33333333332
95.95702938365982,86.76621476349737,65.97855948399426,56466.66666666668
95.92727245580505,86.75449414715719,65.95316232680362,56500.0
96.29587413950838,86.64783958486434,66.48133539301408,56533.33333333332
96.0208059669943,86.7162959943229,66.19225136265493,56566.66666666668
96.1775042087542,86.85379088504091,66.37880291005291,56600.0
96.13613816738815,86.90207130832131,66.23095538720538,56633.33333333334
96.27891299137104,86.95544702780441,66.49754314477468,56666.66666666666
96.31080716682644,86.97979086768936,66.49965544103547,56700.0
95.95914954610608,86.92474916387958,66.18672360248446,56733.33333333334
96.29362416107382,87.07190795781399,66.56450743048897,56766.66666666666
96.01634913999044,87.03214584328714,66.32956581462015,56800.0
96.45188159156281,87.33155560882071,66.7624640460211,56833.33333333334
96.39039034520121,87.29089294850573,66.59811298040749,56866.66666666666
96.30779602109301,87.30869487056566,66.64288710450623,56900.0
96.5936437234779,87.4361212267132,66.90492671622475,56933.33333333332
96.55756974506971,87.55149711399712,66.76169432419432,56966.66666666668
96.91796500479386,87.27882310642376,66.99047219558965,57000.0
96.7488425925926,87.25993566618567,66.51246091871091,57033.33333333332
96.75593240651965,87.20649568552255,66.63872243528283,57066.66666666668
96.77068851869606,87.22880213326941,66.65599532598274,57100.0
96.63220351664795,87.25476992143658,66.57839132061353,57133.33333333334
96.95232082732085,87.29737854737856,66.84695165945166,57166.66666666666
96.728354978355,87.25003006253006,66.63407888407889,57200.0
96.7426743767977,87.20216622722914,66.75058425215724,57233.33333333334
96.63570226070226,87.21106902356901,66.51512145262146,57266.66666666666
96.63366097446814,87.22110492065649,66.43882773927615,57300.0
96.89557759961347,87.30512901813351,66.58874243179176,57333.33333333334
96.66266551916776,87.22981685313525,66.23090395736135,57366.66666666666
96.60683594042924,87.01424779159231,66.29413440916657,57400.0
96.41555558888372,87.00896860986549,66.0486824542196,57433.33333333332
97.07626639788641,87.07298300270305,66.71935370565508,57466.66666666668
96.66948123040927,86.91929750888613,66.66492193709975,57500.0
96.18691124687756,86.90000601920126,66.26758359165738,57533.33333333332
96.39671050651579,87.04485809733048,66.51298642670119,57566.66666666668
96.28722734899328,87.02596176893576,66.44069091562801,57600.0
96.59981723394057,87.14469978427613,66.73422519175455,57633.33333333334
96.671920246139,87.21071126930502,66.6410925434363,57666.66666666666
96.53556491673085,87.08218205976053,66.5176125983301,57700.0
96.7851881914382,87.32472041847042,66.86957371332372,57733.33333333334
96.52472876917321,87.28784137673027,66.6776505798728,57766.66666666666
96.8179413179413,87.44660894660895,66.94405363155363,57800.0
96.54753415627995,87.32467941035475,66.67585989932886,57833.33333333334
97.10158671981186,87.4727630915838,66.71811670560926,57866.66666666666
97.14130816572748,87.47980330172109,66.72827232326935,57900.0
96.57688159156281,87.30381112176414,66.42717821188877,57933.33333333332
96.76394714765101,87.12162931447745,66.9825623202301,57966.66666666668
96.01373601789707,86.9296196868009,66.4827889634601,58000.0
96.17267710663685,87.01765846383293,66.64064131245338,58033.33333333332
96.18837181337182,87.08068783068785,66.5300925925926,58066.66666666668
96.15273268398269,87.08918049543051,66.46246693121694,58100.0
96.21970171513796,87.03002237136465,66.66134228187919,58133.33333333334
96.13529367751588,87.02000748222972,66.31636363636363,58166.66666666666
96.40838009726895,87.03381967826412,66.60797605686494,58200.0
96.06116331096196,86.94700969425803,66.34538404175986,58233.33333333334
96.20697507190796,86.92332813998081,66.38455776605943,58266.66666666666
96.24839705177372,86.91836948705657,66.42723813518695,58300.0
96.04257550335569,86.7953319750719,66.19367209971236,58333.33333333334
96.19660774008601,86.84872193024367,66.48769708552318,58366.66666666666
96.01296047725576,86.76019388516032,66.27813571961222,58400.0
96.41363161819537,86.68617449664428,66.80131245339297,58433.33333333332
95.78550724637682,86.57484949832777,66.17360089186177,58466.66666666668
95.93017151379568,86.6657419835943,66.26985831469052,58500.0
