Time[ms],HR[bpm]
833,77.83784
867,75.90361999999998
900,76.59574
933,76.59574
967,77.83784
1000,77.83784
1033,77.83784
1067,77.83784
1100,77.83784
1133,77.83784
1167,77.83784
1200,77.83784
1233,77.83784
1267,77.83784
1300,77.83784
1333,77.83784
1367,77.83784
1400,77.83784
1433,77.83784
1467,79.24529
1500,79.24529
1533,79.24529
1567,79.24529
1600,78.68852
1633,78.68852
1667,78.68852
1700,78.68852
1733,78.68852
1767,78.68852
1800,78.68852
1833,78.68852
1867,78.68852
1900,78.68852
1933,78.68852
1967,78.68852
2000,78.68852
2033,78.68852
2067,78.68852
2100,78.68852
2133,78.68852
2167,78.68852
2200,78.68852
2233,78.68852
2267,78.68852
2300,78.68852
2333,79.74683
2367,79.74683
2400,79.74683
2433,79.74683
2467,78.26087
2500,78.26087
2533,78.26087
2567,78.26087
2600,78.26087
2633,78.26087
2667,78.26087
2700,78.26087
2733,78.26087
2767,78.26087
2800,78.26087
2833,78.26087
2867,78.26087
2900,78.26087
2933,78.26087
2967,78.26087
3000,78.26087
3033,78.26087
3067,78.26087
3100,78.26087
3133,78.26087
3167,78.75
3200,78.75
3233,78.75
3267,78.75
3300,78.75
3333,78.75
3367,78.75
3400,76.59574
3433,76.59574
3467,76.59574
3500,76.59574
3533,76.59574
3567,76.59574
3600,76.59574
3633,76.59574
3667,76.59574
3700,76.59574
3733,76.59574
3767,76.59574
3800,76.59574
3833,76.59574
3867,76.59574
3900,76.59574
3933,76.59574
3967,77.30060999999998
4000,77.30060999999998
4033,77.30060999999998
4067,77.30060999999998
4100,77.30060999999998
4133,77.30060999999998
4167,77.30060999999998
4200,77.30060999999998
4233,77.30060999999998
4267,76.19048000000002
4300,76.19048000000002
4333,76.19048000000002
4367,76.19048000000002
4400,76.19048000000002
4433,76.19048000000002
4467,76.19048000000002
4500,76.19048000000002
4533,76.19048000000002
4567,76.19048000000002
4600,76.19048000000002
4633,76.19048000000002
4667,76.19048000000002
4700,76.19048000000002
4733,76.19048000000002
4767,76.19048000000002
4800,75.90361999999998
4833,75.90361999999998
4867,75.90361999999998
4900,75.90361999999998
4933,75.90361999999998
4967,75.90361999999998
5000,75.90361999999998
5033,75.90361999999998
5067,75.90361999999998
5100,75.90361999999998
5133,75.90361999999998
5167,74.6114
5200,75.90361999999998
5233,75.90361999999998
5267,73.46939
5300,73.46939
5333,73.46939
5367,73.46939
5400,73.46939
5433,73.46939
5467,73.46939
5500,73.46939
5533,73.46939
5567,72.0
5600,72.0
5633,72.0
5667,72.0
5700,72.0
5733,72.0
5767,72.0
5800,72.0
5833,72.0
5867,72.0
5900,72.0
5933,72.0
5967,72.0
6000,72.0
6033,72.0
6067,72.0
6100,72.0
6133,72.0
6167,72.0
6200,72.0
6233,70.58823000000002
6267,69.23076999999999
6300,69.23076999999999
6333,69.23076999999999
6367,69.23076999999999
6400,69.23076999999999
6433,69.23076999999999
6467,69.23076999999999
6500,69.23076999999999
6533,69.23076999999999
6567,69.23076999999999
6600,69.23076999999999
6633,69.23076999999999
6667,69.23076999999999
6700,69.23076999999999
6733,69.23076999999999
6767,69.23076999999999
6800,69.23076999999999
6833,69.23076999999999
6867,69.23076999999999
6900,69.23076999999999
6933,69.23076999999999
6967,69.23076999999999
7000,66.25766999999999
7033,66.25766999999999
7067,66.25766999999999
7100,66.25766999999999
7133,66.31579
7167,66.31579
7200,66.31579
7233,66.31579
7267,66.31579
7300,66.31579
7333,66.31579
7367,66.31579
7400,66.31579
7433,66.31579
7467,66.31579
7500,66.31579
7533,66.31579
7567,66.31579
7600,66.31579
7633,65.06024000000001
7667,65.06024000000001
7700,65.06024000000001
7733,65.06024000000001
7767,65.06024000000001
7800,65.06024000000001
7833,65.06024000000001
7867,65.06024000000001
7900,65.06024000000001
7933,65.06024000000001
7967,65.96859
8000,65.96859
8033,65.96859
8067,65.96859
8100,65.96859
8133,65.96859
8167,65.96859
8200,65.96859
8233,65.96859
8267,65.96859
8300,65.96859
8333,65.96859
8367,65.96859
8400,65.96859
8433,65.45454000000001
8467,65.45454000000001
8500,65.45454000000001
8533,65.45454000000001
8567,65.45454000000001
8600,65.45454000000001
8633,65.45454000000001
8667,65.45454000000001
8700,65.45454000000001
8733,65.45454000000001
8767,65.45454000000001
8800,66.31579
8833,66.31579
8867,66.31579
8900,66.31579
8933,66.31579
8967,66.31579
9000,66.31579
9033,66.31579
9067,66.31579
9100,66.31579
9133,66.31579
9167,66.31579
9200,66.31579
9233,66.31579
9267,66.31579
9300,66.66666
9333,66.66666
9367,66.66666
9400,66.66666
9433,66.66666
9467,66.66666
9500,66.66666
9533,66.66666
9567,66.66666
9600,66.66666
9633,66.66666
9667,66.66666
9700,66.66666
9733,66.66666
9767,66.66666
9800,66.66666
9833,65.28497
9867,65.28497
9900,65.28497
9933,65.28497
9967,65.28497
10000,65.28497
10033,65.28497
10067,65.28497
10100,65.28497
10133,65.28497
10167,65.28497
10200,65.28497
10233,64.67066
10267,64.67066
10300,64.67066
10333,64.67066
10367,64.67066
10400,64.67066
10433,64.67066
10467,64.67066
10500,64.67066
10533,64.67066
10567,64.67066
10600,64.67066
10633,64.67066
10667,64.67066
10700,64.67066
10733,64.94846
10767,64.94846
10800,64.94846
10833,64.94846
10867,64.94846
10900,64.94846
10933,64.94846
10967,64.94846
11000,64.94846
11033,64.94846
11067,64.94846
11100,64.67066
11133,64.67066
11167,64.67066
11200,64.67066
11233,64.67066
11267,64.67066
11300,64.67066
11333,64.67066
11367,64.67066
11400,64.67066
11433,64.67066
11467,64.67066
11500,64.67066
11533,64.67066
11567,64.67066
11600,64.67066
11633,64.67066
11667,64.67066
11700,64.67066
11733,64.67066
11767,64.67066
11800,63.31658
11833,63.31658
11867,63.31658
11900,63.31658
11933,63.31658
11967,63.31658
12000,64.67066
12033,64.67066
12067,64.67066
12100,64.67066
12133,64.67066
12167,64.67066
12200,64.67066
12233,64.67066
12267,64.67066
12300,64.67066
12333,64.67066
12367,64.67066
12400,64.67066
12433,64.67066
12467,64.67066
12500,64.67066
12533,64.67066
12567,64.67066
12600,64.67066
12633,64.67066
12667,64.67066
12700,64.67066
12733,64.67066
12767,64.67066
12800,64.67066
12833,64.67066
12867,64.67066
12900,64.67066
12933,62.68657
12967,62.68657
13000,62.68657
13033,62.68657
13067,61.71429000000001
13100,61.71429000000001
13133,61.71429000000001
13167,61.71429000000001
13200,61.71429000000001
13233,61.71429000000001
13267,61.71429000000001
13300,61.71429000000001
13333,61.71429000000001
13367,61.71429000000001
13400,61.71429000000001
13433,61.71429000000001
13467,61.71429000000001
13500,61.71429000000001
13533,61.71429000000001
13567,61.71429000000001
13600,61.71429000000001
13633,61.71429000000001
13667,61.71429000000001
13700,61.71429000000001
13733,61.71429000000001
13767,61.71429000000001
13800,61.71429000000001
13833,61.71429000000001
13867,61.71429000000001
13900,61.71429000000001
13933,60.33519
13967,60.33519
14000,60.33519
14033,60.33519
14067,60.33519
14100,60.33519
14133,60.33519
14167,60.33519
14200,60.33519
14233,60.33519
14267,60.33519
14300,60.33519
14333,60.33519
14367,60.33519
14400,60.33519
14433,60.33519
14467,60.33519
14500,60.33519
14533,60.33519
14567,60.33519
14600,60.33519
14633,60.33519
14667,60.33519
14700,60.33519
14733,60.33519
14767,60.33519
14800,59.21053000000001
14833,59.21053000000001
14867,59.21053000000001
14900,59.21053000000001
14933,59.21053000000001
14967,59.01639
15000,59.01639
15033,58.69565
15067,58.69565
15100,58.69565
15133,58.69565
15167,58.69565
15200,58.69565
15233,58.69565
15267,58.69565
15300,58.69565
15333,58.69565
15367,58.69565
15400,58.69565
15433,58.69565
15467,58.69565
15500,58.69565
15533,58.69565
15567,58.69565
15600,58.69565
15633,58.69565
15667,58.69565
15700,58.06452
15733,58.06452
15767,58.06452
15800,58.06452
15833,58.06452
15867,58.06452
15900,58.06452
15933,58.06452
15967,58.06452
16000,58.06452
16033,58.06452
16067,57.75401
16100,57.75401
16133,57.75401
16167,57.75401
16200,57.75401
16233,57.75401
16267,57.75401
16300,57.75401
16333,57.75401
16367,57.75401
16400,57.75401
16433,57.75401
16467,57.75401
16500,57.75401
16533,57.75401
16567,57.75401
16600,57.75401
16633,57.75401
16667,56.25
16700,56.25
16733,56.25
16767,56.25
16800,56.25
16833,56.25
16867,56.25
16900,56.25
16933,56.25
16967,56.25
17000,57.44681
17033,57.44681
17067,57.44681
17100,57.44681
17133,57.44681
17167,57.44681
17200,57.44681
17233,57.44681
17267,57.44681
17300,57.44681
17333,57.44681
17367,57.44681
17400,57.44681
17433,57.44681
17467,57.44681
17500,57.44681
17533,57.44681
17567,57.69231
17600,57.69231
17633,57.69231
17667,57.69231
17700,57.69231
17733,57.69231
17767,57.69231
17800,57.69231
17833,57.69231
17867,57.69231
17900,57.69231
17933,57.69231
17967,57.69231
18000,58.06452
18033,58.06452
18067,58.06452
18100,58.06452
18133,58.06452
18167,58.06452
18200,58.06452
18233,58.06452
18267,58.06452
18300,58.06452
18333,58.06452
18367,58.06452
18400,58.06452
18433,58.06452
18467,58.06452
18500,58.06452
18533,58.06452
18567,58.06452
18600,58.06452
18633,59.21053000000001
18667,59.21053000000001
18700,59.21053000000001
18733,59.21053000000001
18767,59.21053000000001
18800,59.21053000000001
18833,59.21053000000001
18867,59.21053000000001
18900,59.21053000000001
18933,59.21053000000001
18967,59.66851
19000,59.66851
19033,59.66851
19067,59.66851
19100,59.66851
19133,59.66851
19167,59.66851
19200,59.66851
19233,59.66851
19267,59.66851
19300,59.66851
19333,59.66851
19367,59.66851
19400,59.66851
19433,59.66851
19467,59.66851
19500,59.66851
19533,59.66851
19567,59.66851
19600,59.66851
19633,59.66851
19667,59.66851
19700,59.66851
19733,59.66851
19767,59.60265
19800,59.60265
19833,59.60265
19867,60.67416
19900,60.67416
19933,60.67416
19967,60.67416
20000,60.67416
20033,60.67416
20067,60.67416
20100,60.67416
20133,60.67416
20167,60.67416
20200,60.67416
20233,60.67416
20267,60.67416
20300,60.67416
20333,60.67416
20367,60.67416
20400,60.67416
20433,60.67416
20467,60.67416
20500,60.67416
20533,60.67416
20567,60.67416
20600,60.67416
20633,60.67416
20667,60.67416
20700,60.67416
20733,60.67416
20767,62.42775
20800,62.42775
20833,62.42775
20867,62.42775
20900,62.42775
20933,62.42775
20967,62.42775
21000,62.42775
21033,62.42775
21067,62.42775
21100,62.42775
21133,62.42775
21167,62.42775
21200,62.42775
21233,62.42775
21267,62.42775
21300,62.42775
21333,62.42775
21367,62.42775
21400,62.42775
21433,62.42775
21467,62.42775
21500,62.42775
21533,62.42775
21567,62.42775
21600,62.42775
21633,62.42775
21667,62.42775
21700,62.42775
21733,62.37624
21767,62.37624
21800,62.37624
21833,63.52941
21867,63.52941
21900,63.52941
21933,63.52941
21967,63.52941
22000,63.52941
22033,63.52941
22067,63.52941
22100,63.52941
22133,63.52941
22167,63.52941
22200,63.52941
22233,63.52941
22267,63.52941
22300,63.52941
22333,63.52941
22367,63.52941
22400,63.52941
22433,63.52941
22467,63.52941
22500,63.52941
22533,63.52941
22567,63.52941
22600,63.52941
22633,63.52941
22667,63.52941
22700,63.52941
22733,63.52941
22767,63.52941
22800,62.37624
22833,62.37624
22867,62.37624
22900,62.06896999999999
22933,62.06896999999999
22967,61.71429000000001
23000,61.71429000000001
23033,61.71429000000001
23067,61.71429000000001
23100,61.71429000000001
23133,61.71429000000001
23167,61.71429000000001
23200,61.71429000000001
23233,61.71429000000001
23267,61.71429000000001
23300,61.71429000000001
23333,61.71429000000001
23367,61.71429000000001
23400,61.71429000000001
23433,61.71429000000001
23467,61.71429000000001
23500,61.71429000000001
23533,61.71429000000001
23567,61.71429000000001
23600,61.71429000000001
23633,61.71429000000001
23667,61.71429000000001
23700,61.71429000000001
23733,61.71429000000001
23767,61.71429000000001
23800,61.71429000000001
23833,62.06896999999999
23867,62.06896999999999
23900,61.01695
23933,62.06896999999999
23967,60.33519
24000,60.33519
24033,60.33519
24067,60.0
24100,60.0
24133,60.0
24167,60.0
24200,60.33519
24233,60.33519
24267,60.33519
24300,60.33519
24333,60.33519
24367,60.33519
24400,60.33519
24433,60.33519
24467,60.33519
24500,60.33519
24533,60.33519
24567,60.33519
24600,60.33519
24633,60.33519
24667,60.33519
24700,60.33519
24733,60.33519
24767,60.33519
24800,60.33519
24833,60.0
24867,61.01695
24900,61.01695
24933,61.01695
24967,61.01695
25000,61.01695
25033,61.01695
25067,61.01695
25100,61.01695
25133,61.01695
25167,61.01695
25200,61.01695
25233,61.01695
25267,61.01695
25300,61.01695
25333,61.01695
25367,61.01695
25400,61.01695
25433,61.01695
25467,61.01695
25500,61.01695
25533,61.01695
25567,61.01695
25600,61.01695
25633,61.01695
25667,61.01695
25700,61.01695
25733,61.01695
25767,61.01695
25800,60.0
25833,60.0
25867,60.0
25900,60.0
25933,60.0
25967,60.0
26000,60.0
26033,60.0
26067,60.0
26100,60.0
26133,60.0
26167,60.0
26200,60.0
26233,60.0
26267,60.0
26300,60.0
26333,60.0
26367,60.0
26400,60.0
26433,60.0
26467,60.0
26500,60.0
26533,60.0
26567,60.0
26600,60.0
26633,60.0
26667,60.0
26700,58.82353000000001
26733,58.82353000000001
26767,58.82353000000001
26800,58.82353000000001
26833,58.82353000000001
26867,58.82353000000001
26900,58.82353000000001
26933,58.37838000000001
26967,58.37838000000001
27000,58.37838000000001
27033,58.37838000000001
27067,58.37838000000001
27100,58.37838000000001
27133,58.37838000000001
27167,58.37838000000001
27200,58.37838000000001
27233,58.37838000000001
27267,58.37838000000001
27300,58.37838000000001
27333,58.37838000000001
27367,58.37838000000001
27400,58.37838000000001
27433,58.37838000000001
27467,58.37838000000001
27500,58.37838000000001
27533,58.37838000000001
27567,58.37838000000001
27600,57.69231
27633,57.69231
27667,57.69231
27700,57.69231
27733,57.69231
27767,57.69231
27800,57.69231
27833,57.69231
27867,58.69565
27900,58.69565
27933,58.69565
27967,58.69565
28000,58.69565
28033,58.69565
28067,58.69565
28100,58.69565
28133,58.69565
28167,58.69565
28200,58.69565
28233,58.69565
28267,58.69565
28300,58.69565
28333,58.69565
28367,58.69565
28400,58.69565
28433,58.69565
28467,58.69565
28500,58.69565
28533,58.69565
28567,59.60265
28600,59.60265
28633,59.60265
28667,59.60265
28700,59.60265
28733,59.60265
28767,59.60265
28800,59.60265
28833,59.60265
28867,59.60265
28900,59.60265
28933,59.60265
28967,59.60265
29000,58.37838000000001
29033,58.37838000000001
29067,58.37838000000001
29100,58.37838000000001
29133,58.37838000000001
29167,58.37838000000001
29200,58.37838000000001
29233,58.37838000000001
29267,58.37838000000001
29300,58.37838000000001
29333,58.37838000000001
29367,58.37838000000001
29400,58.37838000000001
29433,58.37838000000001
29467,58.37838000000001
29500,58.37838000000001
29533,58.37838000000001
29567,58.37838000000001
29600,58.37838000000001
29633,58.37838000000001
29667,59.60265
29700,59.60265
29733,59.60265
29767,59.60265
29800,59.60265
29833,59.60265
29867,59.60265
29900,59.60265
29933,59.60265
29967,59.60265
30000,59.60265
30033,59.60265
30067,59.60265
30100,59.60265
30133,58.37838000000001
30167,58.37838000000001
30200,58.37838000000001
30233,58.37838000000001
30267,58.37838000000001
30300,58.06452
30333,58.06452
30367,57.75401
30400,57.75401
30433,57.75401
30467,57.75401
30500,57.75401
30533,57.75401
30567,57.75401
30600,57.75401
30633,57.75401
30667,57.75401
30700,57.75401
30733,57.75401
30767,57.75401
30800,56.60378000000001
30833,56.60378000000001
30867,56.60378000000001
30900,56.60378000000001
30933,56.60378000000001
30967,56.60378000000001
31000,56.60378000000001
31033,56.60378000000001
31067,56.60378000000001
31100,56.60378000000001
31133,56.60378000000001
31167,56.60378000000001
31200,56.60378000000001
31233,56.5445
31267,56.5445
31300,56.5445
31333,56.5445
31367,56.5445
31400,56.5445
31433,56.5445
31467,56.5445
31500,56.5445
31533,56.25
31567,56.25
31600,56.25
31633,56.25
31667,56.25
31700,55.55556
31733,55.55556
31767,55.55556
31800,55.55556
31833,55.55556
31867,55.55556
31900,55.55556
31933,55.55556
31967,55.55556
32000,55.55556
32033,55.55556
32067,55.55556
32100,55.55556
32133,55.55556
32167,55.55556
32200,55.55556
32233,55.55556
32267,55.55556
32300,55.55556
32333,55.55556
32367,55.38462
32400,55.38462
32433,55.38462
32467,55.38462
32500,55.38462
32533,55.38462
32567,55.38462
32600,55.38462
32633,55.38462
32667,55.38462
32700,55.21473
32733,55.21473
32767,55.21473
32800,55.21473
32833,55.21473
32867,55.21473
32900,55.21473
32933,55.21473
32967,55.21473
33000,55.21473
33033,55.21473
33067,55.21473
33100,55.21473
33133,55.21473
33167,55.21473
33200,55.21473
33233,55.21473
33267,55.21473
33300,55.21473
33333,55.21473
33367,55.21473
33400,55.21473
33433,55.21473
33467,55.10204
33500,55.10204
33533,54.82233000000001
33567,54.82233000000001
33600,54.82233000000001
33633,54.82233000000001
33667,54.82233000000001
33700,54.82233000000001
33733,54.82233000000001
33767,53.25444
33800,53.25444
33833,53.25444
33867,53.25444
33900,53.25444
33933,53.25444
33967,53.25444
34000,53.25444
34033,53.25444
34067,53.25444
34100,53.25444
34133,53.25444
34167,53.25444
34200,53.25444
34233,53.57143000000001
34267,53.57143000000001
34300,53.57143000000001
34333,53.57143000000001
34367,53.57143000000001
34400,53.57143000000001
34433,53.57143000000001
34467,53.57143000000001
34500,54.27136
34533,54.27136
34567,54.27136
34600,54.27136
34633,54.27136
34667,54.27136
34700,54.54546
34733,54.54546
34767,54.54546
34800,54.54546
34833,54.54546
34867,54.54546
34900,54.54546
34933,54.54546
34967,54.54546
35000,54.54546
35033,54.54546
35067,54.54546
35100,54.54546
35133,54.54546
35167,54.54546
35200,54.54546
35233,54.54546
35267,54.54546
35300,54.54546
35333,54.54546
35367,54.54546
35400,56.25
35433,56.5445
35467,56.5445
35500,56.5445
35533,56.5445
35567,56.5445
35600,56.5445
35633,56.5445
35667,56.5445
35700,56.25
35733,56.25
35767,56.25
35800,56.25
35833,56.96202
35867,56.96202
35900,56.96202
35933,56.96202
35967,56.96202
36000,56.96202
36033,56.96202
36067,56.96202
36100,56.96202
36133,56.96202
36167,56.96202
36200,56.96202
36233,56.96202
36267,56.96202
36300,56.96202
36333,56.96202
36367,56.96202
36400,57.44681
36433,57.44681
36467,56.84211
36500,56.84211
36533,56.84211
36567,56.84211
36600,56.84211
36633,56.84211
36667,56.84211
36700,56.84211
36733,56.84211
36767,56.84211
36800,56.84211
36833,56.84211
36867,56.84211
36900,56.84211
36933,56.84211
36967,57.69231
37000,57.69231
37033,57.69231
37067,57.69231
37100,57.69231
37133,57.69231
37167,57.69231
37200,57.69231
37233,57.69231
37267,57.69231
37300,57.69231
37333,57.69231
37367,57.69231
37400,57.69231
37433,57.69231
37467,57.69231
37500,57.69231
37533,57.44681
37567,57.44681
37600,57.44681
37633,57.44681
37667,57.44681
37700,57.44681
37733,57.44681
37767,57.44681
37800,57.44681
37833,57.44681
37867,57.44681
37900,57.44681
37933,57.44681
37967,57.44681
38000,57.44681
38033,57.44681
38067,57.44681
38100,58.06452
38133,58.06452
38167,58.06452
38200,58.06452
38233,58.06452
38267,58.06452
38300,58.06452
38333,58.06452
38367,58.06452
38400,58.06452
38433,58.06452
38467,58.06452
38500,58.06452
38533,58.06452
38567,58.06452
38600,57.75401
38633,57.75401
38667,57.44681
38700,57.44681
38733,57.44681
38767,57.44681
38800,57.44681
38833,57.44681
38867,57.44681
38900,57.44681
38933,57.44681
38967,57.44681
39000,57.44681
39033,57.44681
39067,57.44681
39100,57.44681
39133,57.44681
39167,57.44681
39200,58.06452
39233,58.06452
39267,58.06452
39300,58.06452
39333,58.06452
39367,58.06452
39400,58.06452
39433,58.06452
39467,58.06452
39500,58.06452
39533,58.06452
39567,58.06452
39600,58.06452
39633,58.06452
39667,58.06452
39700,58.06452
39733,58.06452
39767,58.06452
39800,56.84211
39833,56.84211
39867,56.84211
39900,56.84211
39933,56.84211
39967,56.84211
40000,56.84211
40033,56.84211
40067,56.84211
40100,56.84211
40133,56.84211
40167,56.84211
40200,56.84211
40233,56.84211
40267,56.84211
40300,56.60378000000001
40333,56.60378000000001
40367,56.60378000000001
40400,56.60378000000001
40433,56.60378000000001
40467,56.60378000000001
40500,56.60378000000001
40533,56.60378000000001
40567,56.60378000000001
40600,56.60378000000001
40633,56.60378000000001
40667,56.60378000000001
40700,56.60378000000001
40733,56.60378000000001
40767,56.60378000000001
40800,56.60378000000001
40833,56.60378000000001
40867,56.60378000000001
40900,56.60378000000001
40933,56.60378000000001
40967,56.60378000000001
41000,55.38462
41033,55.38462
41067,55.38462
41100,55.38462
41133,55.38462
41167,55.38462
41200,55.38462
41233,55.38462
41267,55.38462
41300,55.38462
41333,53.57143000000001
41367,53.57143000000001
41400,53.57143000000001
41433,53.57143000000001
41467,53.57143000000001
41500,53.57143000000001
41533,53.57143000000001
41567,53.57143000000001
41600,53.57143000000001
41633,53.57143000000001
41667,53.57143000000001
41700,53.57143000000001
41733,53.57143000000001
41767,53.57143000000001
41800,53.57143000000001
41833,53.57143000000001
41867,53.57143000000001
41900,53.57143000000001
41933,53.57143000000001
41967,53.57143000000001
42000,53.57143000000001
42033,53.57143000000001
42067,53.57143000000001
42100,53.57143000000001
42133,53.57143000000001
42167,53.57143000000001
42200,52.94118
42233,52.32558
42267,52.32558
42300,52.63158000000001
42333,52.63158000000001
42367,52.63158000000001
42400,52.63158000000001
42433,52.63158000000001
42467,52.63158000000001
42500,52.63158000000001
42533,52.63158000000001
42567,52.32558
42600,52.32558
42633,52.32558
42667,52.32558
42700,52.32558
42733,52.32558
42767,52.32558
42800,52.32558
42833,52.32558
42867,52.32558
42900,52.32558
42933,52.32558
42967,52.32558
43000,52.32558
43033,52.32558
43067,52.32558
43100,52.32558
43133,52.32558
43167,52.32558
43200,52.32558
43233,52.63158000000001
43267,52.63158000000001
43300,51.79856
43333,51.72414000000001
43367,51.72414000000001
43400,51.72414000000001
43433,51.72414000000001
43467,51.72414000000001
43500,51.72414000000001
43533,51.42857
43567,51.42857
43600,51.42857
43633,51.42857
43667,51.42857
43700,51.42857
43733,51.42857
43767,51.42857
43800,51.42857
43833,51.42857
43867,51.42857
43900,51.42857
43933,51.42857
43967,51.42857
44000,51.42857
44033,51.42857
44067,51.42857
44100,51.42857
44133,51.42857
44167,51.42857
44200,51.42857
44233,51.42857
44267,51.42857
44300,51.42857
44333,51.42857
44367,50.70422
44400,50.70422
44433,50.70422
44467,51.42857
44500,51.42857
44533,51.42857
44567,51.42857
44600,51.42857
44633,51.42857
44667,51.42857
44700,51.42857
44733,51.42857
44767,51.13636
44800,51.13636
44833,51.13636
44867,51.13636
44900,51.13636
44933,51.13636
44967,51.13636
45000,51.13636
45033,51.13636
45067,51.13636
45100,51.13636
45133,51.13636
45167,51.13636
45200,51.13636
45233,51.13636
45267,51.13636
45300,51.13636
45333,51.13636
45367,51.13636
45400,51.13636
45433,51.13636
45467,51.06383
45500,51.06383
45533,52.32558
45567,52.32558
45600,52.32558
45633,52.32558
45667,52.32558
45700,52.02312
45733,52.02312
45767,52.02312
45800,52.02312
45833,52.02312
45867,52.02312
45900,52.02312
45933,52.02312
45967,52.02312
46000,52.02312
46033,52.02312
46067,52.02312
46100,52.02312
46133,52.02312
46167,52.02312
46200,52.02312
46233,52.02312
46267,52.02312
46300,52.02312
46333,52.02312
46367,52.02312
46400,52.02312
46433,52.02312
46467,52.02312
46500,52.02312
46533,52.02312
46567,53.20197
46600,53.20197
46633,53.89222
46667,53.89222
46700,53.89222
46733,53.89222
46767,53.89222
46800,53.89222
46833,53.89222
46867,53.89222
46900,53.89222
46933,53.89222
46967,53.89222
47000,53.89222
47033,53.89222
47067,53.89222
47100,53.89222
47133,53.89222
47167,53.89222
47200,53.89222
47233,53.89222
47267,53.89222
47300,53.89222
47333,53.89222
47367,53.89222
47400,53.89222
47433,53.89222
47467,53.89222
47500,53.89222
47533,53.89222
47567,53.89222
47600,53.89222
47633,53.89222
47667,54.0
47700,54.0
47733,54.0
47767,54.0
47800,54.0
47833,54.54546
47867,54.54546
47900,54.54546
47933,54.54546
47967,54.54546
48000,54.54546
48033,54.54546
48067,54.54546
48100,54.54546
48133,54.54546
48167,54.54546
48200,54.54546
48233,54.54546
48267,54.54546
48300,54.54546
48333,54.54546
48367,54.54546
48400,54.54546
48433,54.54546
48467,54.54546
48500,54.54546
48533,54.54546
48567,54.54546
48600,54.54546
48633,54.54546
48667,54.54546
48700,54.54546
48733,54.54546
48767,54.54546
48800,54.54546
48833,54.54546
48867,54.54546
48900,54.54546
48933,54.54546
48967,54.54546
49000,55.55556
49033,55.55556
49067,55.55556
49100,55.55556
49133,55.55556
49167,55.55556
49200,55.55556
49233,55.55556
49267,55.55556
49300,55.55556
49333,55.55556
49367,55.55556
49400,55.55556
49433,55.55556
49467,55.55556
49500,55.55556
49533,55.55556
49567,55.55556
49600,55.55556
49633,55.55556
49667,55.55556
49700,55.55556
49733,55.55556
49767,55.55556
49800,55.55556
49833,55.55556
49867,55.38462
49900,55.38462
49933,55.38462
49967,55.38462
50000,55.38462
50033,55.38462
50067,55.38462
50100,55.38462
50133,55.38462
50167,55.38462
50200,55.90062
50233,55.90062
50267,55.90062
50300,55.90062
50333,55.90062
50367,55.90062
50400,55.90062
50433,55.90062
50467,55.90062
50500,55.90062
50533,55.90062
50567,55.90062
50600,55.90062
50633,55.90062
50667,55.90062
50700,55.90062
50733,55.90062
50767,55.90062
50800,55.90062
50833,55.90062
50867,56.5445
50900,56.5445
50933,56.5445
50967,55.95855
51000,55.95855
51033,55.95855
51067,55.95855
51100,55.95855
51133,55.95855
51167,55.95855
51200,55.95855
51233,55.95855
51267,55.95855
51300,55.95855
51333,55.90062
51367,55.90062
51400,55.90062
51433,55.90062
51467,55.90062
51500,55.90062
51533,55.90062
51567,55.90062
51600,55.90062
51633,55.90062
51667,55.90062
51700,55.90062
51733,55.90062
51767,55.90062
51800,55.90062
51833,56.25
51867,56.25
51900,56.25
51933,56.25
51967,56.25
52000,56.25
52033,56.25
52067,56.25
52100,56.25
52133,56.25
52167,56.25
52200,56.25
52233,56.25
52267,56.25
52300,56.25
52333,56.25
52367,56.25
52400,55.55556
52433,55.55556
52467,55.55556
52500,55.55556
52533,55.55556
52567,55.55556
52600,55.55556
52633,55.55556
52667,55.55556
52700,55.55556
52733,55.55556
52767,55.55556
52800,55.55556
52833,55.55556
52867,55.55556
52900,55.55556
52933,55.55556
52967,56.25
53000,56.25
53033,56.25
53067,56.25
53100,56.25
53133,56.25
53167,56.25
53200,56.25
53233,56.25
53267,56.25
53300,56.25
53333,56.25
53367,56.25
53400,56.60378000000001
53433,56.60378000000001
53467,56.60378000000001
53500,56.60378000000001
53533,56.60378000000001
53567,56.60378000000001
53600,56.60378000000001
53633,56.60378000000001
53667,56.60378000000001
53700,56.60378000000001
53733,56.60378000000001
53767,56.60378000000001
53800,56.60378000000001
53833,56.60378000000001
53867,56.60378000000001
53900,56.60378000000001
53933,56.60378000000001
53967,57.14286
54000,57.14286
54033,57.14286
54067,57.14286
54100,57.14286
54133,57.14286
54167,57.14286
54200,57.14286
54233,57.14286
54267,57.14286
54300,57.14286
54333,57.14286
54367,57.14286
54400,57.14286
54433,57.14286
54467,57.14286
54500,57.69231
54533,57.69231
54567,57.69231
54600,57.69231
54633,57.69231
54667,57.69231
54700,57.69231
54733,57.69231
54767,57.69231
54800,57.69231
54833,57.69231
54867,57.69231
54900,57.69231
54933,57.69231
54967,57.69231
55000,57.69231
55033,57.69231
55067,57.14286
55100,57.14286
55133,56.84211
55167,56.84211
55200,56.84211
55233,56.84211
55267,56.84211
55300,56.84211
55333,56.84211
55367,56.84211
55400,56.84211
55433,56.84211
55467,56.84211
55500,56.84211
55533,56.84211
55567,56.84211
55600,57.69231
55633,57.69231
55667,57.69231
55700,57.69231
55733,57.69231
55767,57.69231
55800,57.69231
55833,57.69231
55867,57.69231
55900,57.69231
55933,57.69231
55967,57.69231
56000,57.69231
56033,57.69231
56067,57.69231
56100,57.75401
56133,57.75401
56167,57.75401
56200,57.75401
56233,57.75401
56267,57.75401
56300,57.75401
56333,57.75401
56367,57.75401
56400,57.75401
56433,57.75401
56467,57.75401
56500,57.75401
56533,57.75401
56567,57.75401
56600,57.75401
56633,57.75401
56667,57.75401
56700,57.69231
56733,57.69231
56767,57.69231
56800,57.69231
56833,57.69231
56867,57.69231
56900,57.69231
56933,57.69231
56967,57.69231
57000,57.69231
57033,57.69231
57067,58.37838000000001
57100,58.37838000000001
57133,58.37838000000001
57167,58.37838000000001
57200,58.06452
57233,58.06452
57267,58.06452
57300,58.06452
57333,58.06452
57367,58.06452
57400,58.06452
57433,58.06452
57467,58.06452
57500,58.06452
57533,58.06452
57567,58.06452
57600,58.06452
57633,58.06452
57667,58.06452
57700,58.06452
57733,58.44156
57767,58.44156
57800,58.44156
57833,58.44156
57867,58.44156
57900,58.44156
57933,58.44156
57967,58.44156
58000,58.44156
58033,58.44156
58067,58.44156
58100,58.44156
58133,58.37838000000001
58167,58.37838000000001
58200,58.37838000000001
58233,58.37838000000001
58267,58.06452
58300,58.06452
58333,58.06452
58367,58.06452
58400,58.06452
58433,58.06452
58467,58.06452
58500,58.06452
58533,58.06452
58567,58.06452
58600,58.06452
58633,58.06452
58667,58.06452
58700,58.06452
58733,58.06452
58767,58.06452
58800,57.69231
58833,57.69231
58867,57.69231
58900,57.69231
58933,57.69231
58967,57.69231
59000,57.69231
59033,57.69231
59067,57.69231
59100,57.69231
59133,58.37838000000001
59167,58.37838000000001
59200,58.37838000000001
59233,58.37838000000001
59267,58.37838000000001
59300,58.37838000000001
59333,58.37838000000001
59367,58.37838000000001
59400,58.37838000000001
59433,58.37838000000001
59467,58.37838000000001
59500,58.37838000000001
59533,58.37838000000001
59567,58.37838000000001
59600,58.37838000000001
59633,58.37838000000001
59667,58.37838000000001
59700,58.37838000000001
59733,58.37838000000001
59767,58.37838000000001
59800,58.06452
59833,58.06452
59867,58.06452
59900,58.06452
59933,58.06452
59967,58.06452
60000,58.06452
60033,58.06452
60067,58.06452
60100,58.06452
60133,58.06452
60167,58.06452
60200,58.06452
60233,58.06452
60267,58.06452
60300,58.06452
60333,58.06452
60367,58.06452
60400,58.06452
60433,58.06452
60467,58.06452
60500,58.06452
60533,58.06452
60567,58.06452
60600,58.06452
60633,58.06452
60667,58.06452
60700,58.06452
60733,58.06452
60767,58.06452
60800,58.82353000000001
60833,58.82353000000001
60867,58.82353000000001
60900,58.82353000000001
60933,58.82353000000001
60967,58.82353000000001
61000,58.82353000000001
61033,58.82353000000001
61067,58.82353000000001
61100,58.82353000000001
61133,58.82353000000001
61167,58.82353000000001
61200,58.82353000000001
61233,58.37838000000001
61267,58.37838000000001
61300,58.37838000000001
61333,58.37838000000001
61367,58.37838000000001
61400,58.37838000000001
61433,58.37838000000001
61467,58.37838000000001
61500,58.37838000000001
61533,58.37838000000001
61567,58.37838000000001
61600,58.37838000000001
61633,58.37838000000001
61667,58.37838000000001
61700,58.37838000000001
61733,58.37838000000001
61767,58.37838000000001
61800,58.37838000000001
61833,58.37838000000001
61867,58.37838000000001
61900,58.44156
61933,58.44156
61967,58.44156
62000,58.44156
62033,58.44156
62067,58.44156
62100,58.44156
62133,58.44156
62167,58.44156
62200,58.44156
62233,58.69565
62267,58.69565
62300,58.69565
62333,58.69565
62367,58.69565
62400,58.69565
62433,58.69565
62467,58.69565
62500,58.69565
62533,58.69565
62567,58.69565
62600,58.69565
62633,58.69565
62667,58.69565
62700,58.69565
62733,58.69565
62767,58.69565
62800,58.69565
62833,58.69565
62867,58.69565
62900,58.69565
62933,58.44156
62967,58.44156
63000,58.44156
63033,58.44156
63067,58.44156
63100,58.44156
63133,58.44156
63167,59.34066
63200,59.34066
63233,59.34066
63267,59.34066
63300,59.34066
63333,59.34066
63367,59.34066
63400,59.34066
63433,59.34066
63467,59.34066
63500,59.34066
63533,59.34066
63567,59.34066
63600,59.34066
63633,59.34066
63667,59.34066
63700,59.34066
63733,59.34066
63767,59.34066
63800,59.34066
63833,59.34066
63867,59.34066
63900,59.34066
63933,60.0
63967,60.0
64000,61.71429000000001
64033,61.71429000000001
64067,61.71429000000001
64100,61.71429000000001
64133,61.71429000000001
64167,61.71429000000001
64200,61.71429000000001
64233,61.71429000000001
64267,61.71429000000001
64300,61.71429000000001
64333,61.71429000000001
64367,61.71429000000001
64400,61.71429000000001
64433,61.71429000000001
64467,61.71429000000001
64500,61.71429000000001
64533,61.71429000000001
64567,61.71429000000001
64600,61.71429000000001
64633,61.71429000000001
64667,61.71429000000001
64700,61.71429000000001
64733,61.71429000000001
64767,61.71429000000001
64800,61.71429000000001
64833,63.0
64867,63.0
64900,63.0
64933,63.0
64967,63.0
65000,63.15789
65033,63.15789
65067,63.15789
65100,63.15789
65133,63.15789
65167,63.15789
65200,63.15789
65233,63.15789
65267,63.15789
65300,63.15789
65333,63.15789
65367,63.15789
65400,63.15789
65433,63.15789
65467,63.15789
65500,63.15789
65533,63.15789
65567,63.15789
65600,63.15789
65633,63.15789
65667,63.15789
65700,63.15789
65733,63.63636
65767,63.63636
65800,63.63636
65833,63.63636
65867,63.63636
65900,63.63636
65933,63.63636
65967,64.67066
66000,64.67066
66033,64.67066
66067,64.67066
66100,64.67066
66133,64.67066
66167,64.67066
66200,64.67066
66233,64.67066
66267,64.67066
66300,64.67066
66333,64.67066
66367,64.67066
66400,64.67066
66433,64.67066
66467,64.67066
66500,64.67066
66533,64.67066
66567,64.67066
66600,64.67066
66633,64.67066
66667,64.67066
66700,64.67066
66733,64.67066
66767,64.67066
66800,63.31658
66833,63.31658
66867,63.31658
66900,63.31658
66933,63.31658
66967,63.31658
67000,64.28571
67033,64.28571
67067,64.28571
67100,64.28571
67133,64.28571
67167,64.28571
67200,64.28571
67233,64.28571
67267,64.28571
67300,64.28571
67333,64.28571
67367,64.28571
67400,64.28571
67433,64.28571
67467,64.28571
67500,64.28571
67533,64.28571
67567,64.28571
67600,64.28571
67633,64.28571
67667,64.28571
67700,64.28571
67733,64.28571
67767,64.28571
67800,64.28571
67833,64.28571
67867,64.28571
67900,64.28571
67933,62.37624
67967,62.37624
68000,62.37624
68033,63.15789
68067,63.15789
68100,63.15789
68133,63.15789
68167,63.15789
68200,63.15789
68233,63.15789
68267,63.15789
68300,63.15789
68333,63.15789
68367,63.15789
68400,63.15789
68433,63.15789
68467,63.15789
68500,63.15789
68533,63.15789
68567,63.15789
68600,63.15789
68633,63.15789
68667,63.15789
68700,63.15789
68733,63.15789
68767,63.15789
68800,63.15789
68833,63.15789
68867,63.15789
68900,63.15789
68933,62.68657
68967,62.68657
69000,62.68657
69033,62.68657
69067,62.42775
69100,62.42775
69133,62.42775
69167,62.06896999999999
69200,62.06896999999999
69233,62.06896999999999
69267,62.06896999999999
69300,62.06896999999999
69333,62.06896999999999
69367,62.06896999999999
69400,62.06896999999999
69433,62.06896999999999
69467,62.06896999999999
69500,62.06896999999999
69533,62.06896999999999
69567,62.06896999999999
69600,62.06896999999999
69633,62.06896999999999
69667,62.06896999999999
69700,62.06896999999999
69733,62.06896999999999
69767,62.06896999999999
69800,62.06896999999999
69833,62.06896999999999
69867,62.06896999999999
69900,62.06896999999999
69933,62.06896999999999
69967,61.76471
70000,60.33519
70033,60.33519
70067,60.33519
70100,60.0
70133,60.0
70167,60.0
70200,60.0
70233,60.0
70267,60.0
70300,60.0
70333,60.0
70367,60.0
70400,60.0
70433,60.0
70467,60.0
70500,60.0
70533,60.0
70567,60.0
70600,60.0
70633,60.0
70667,60.0
70700,60.0
70733,60.0
70767,60.0
70800,60.0
70833,58.06452
70867,58.06452
70900,58.06452
70933,58.06452
70967,58.06452
71000,58.06452
71033,58.06452
71067,58.06452
71100,58.06452
71133,58.06452
71167,58.06452
71200,58.06452
71233,57.75401
71267,57.75401
71300,57.75401
71333,57.75401
71367,57.75401
71400,57.75401
71433,57.75401
71467,57.75401
71500,57.75401
71533,57.75401
71567,57.75401
71600,57.75401
71633,57.75401
71667,56.25
71700,56.25
71733,56.25
71767,56.25
71800,56.25
71833,56.25
71867,56.25
71900,56.25
71933,56.25
71967,56.25
72000,56.25
72033,56.25
72067,56.25
72100,56.5445
72133,56.5445
72167,56.5445
72200,56.5445
72233,56.5445
72267,56.5445
72300,56.5445
72333,56.5445
72367,56.5445
72400,56.5445
72433,56.5445
72467,56.5445
72500,56.5445
72533,56.5445
72567,56.60378000000001
72600,56.60378000000001
72633,56.60378000000001
72667,56.60378000000001
72700,56.60378000000001
72733,56.60378000000001
72767,56.60378000000001
72800,56.60378000000001
72833,56.60378000000001
72867,56.60378000000001
72900,56.60378000000001
72933,56.60378000000001
72967,56.60378000000001
73000,56.60378000000001
73033,56.60378000000001
73067,56.60378000000001
73100,56.60378000000001
73133,56.60378000000001
73167,56.5445
73200,56.5445
73233,56.5445
73267,56.5445
73300,56.5445
73333,56.5445
73367,56.5445
73400,56.5445
73433,56.5445
73467,56.5445
73500,56.5445
73533,56.5445
73567,56.5445
73600,56.5445
73633,56.96202
73667,56.96202
73700,56.96202
73733,56.96202
73767,56.96202
73800,56.96202
73833,56.96202
73867,56.96202
73900,56.96202
73933,56.96202
73967,56.96202
74000,56.96202
74033,56.96202
74067,56.96202
74100,56.96202
74133,57.75401
74167,57.75401
74200,57.75401
74233,57.75401
74267,57.75401
74300,57.75401
74333,57.75401
74367,57.75401
74400,57.75401
74433,57.75401
74467,57.75401
74500,57.75401
74533,57.75401
74567,57.75401
74600,57.75401
74633,57.75401
74667,57.75401
74700,57.75401
74733,57.69231
74767,57.69231
74800,57.69231
74833,57.69231
74867,57.69231
74900,57.69231
74933,57.69231
74967,57.69231
75000,57.69231
75033,57.69231
75067,57.69231
75100,58.37838000000001
75133,58.37838000000001
75167,58.37838000000001
75200,58.37838000000001
75233,58.37838000000001
75267,58.37838000000001
75300,58.37838000000001
75333,58.37838000000001
75367,58.37838000000001
75400,58.37838000000001
75433,58.69565
75467,58.69565
75500,58.69565
75533,58.69565
75567,58.69565
75600,58.69565
75633,58.69565
75667,58.69565
75700,58.69565
75733,58.69565
75767,58.69565
75800,58.82353000000001
75833,58.82353000000001
75867,58.82353000000001
75900,58.82353000000001
75933,58.82353000000001
75967,60.33519
76000,60.33519
76033,60.33519
76067,60.33519
76100,60.33519
76133,60.0
76167,60.0
76200,60.0
76233,60.0
76267,60.0
76300,60.0
76333,60.0
76367,60.0
76400,60.0
76433,60.0
76467,60.0
76500,60.0
76533,60.0
76567,60.0
76600,60.0
76633,60.0
76667,60.0
76700,60.0
76733,60.0
76767,60.0
76800,60.0
76833,60.81081
76867,60.81081
76900,60.81081
76933,60.81081
76967,60.81081
77000,60.81081
77033,60.33519
77067,60.33519
77100,60.33519
77133,60.33519
77167,60.33519
77200,60.33519
77233,60.33519
77267,60.33519
77300,60.33519
77333,60.33519
77367,60.33519
77400,60.33519
77433,60.33519
77467,60.33519
77500,60.33519
77533,60.33519
77567,60.33519
77600,60.33519
77633,60.33519
77667,60.33519
77700,60.33519
77733,60.33519
77767,60.33519
77800,60.33519
77833,60.33519
77867,60.33519
77900,61.22449
77933,61.22449
77967,61.22449
78000,61.22449
78033,61.22449
78067,60.67416
78100,60.67416
78133,60.67416
78167,60.67416
78200,60.67416
78233,60.67416
78267,60.67416
78300,60.67416
78333,60.67416
78367,60.67416
78400,60.67416
78433,60.67416
78467,60.67416
78500,60.67416
78533,60.67416
78567,60.67416
78600,60.67416
78633,60.67416
78667,60.67416
78700,60.67416
78733,60.67416
78767,60.67416
78800,60.33519
78833,60.33519
78867,60.33519
78900,60.33519
78933,60.81081
78967,60.81081
79000,60.81081
79033,61.01695
79067,61.01695
79100,61.01695
79133,61.01695
79167,61.01695
79200,61.01695
79233,61.01695
79267,61.01695
79300,61.01695
79333,61.01695
79367,61.01695
79400,61.01695
79433,61.01695
79467,61.01695
79500,61.01695
79533,61.01695
79567,61.01695
79600,61.01695
79633,61.01695
79667,61.01695
79700,61.01695
79733,61.01695
79767,61.01695
79800,61.01695
79833,61.01695
79867,61.01695
79900,61.01695
79933,61.01695
79967,61.22449
80000,61.22449
80033,61.22449
80067,60.67416
80100,60.67416
80133,60.67416
80167,60.67416
80200,60.67416
80233,60.67416
80267,60.67416
80300,60.67416
80333,60.67416
80367,60.67416
80400,60.67416
80433,60.67416
80467,60.67416
80500,60.67416
80533,60.67416
80567,60.67416
80600,60.67416
80633,60.67416
80667,60.67416
80700,60.67416
80733,60.67416
80767,60.67416
80800,60.67416
80833,60.67416
80867,60.67416
80900,60.67416
80933,60.67416
80967,59.60265
81000,59.60265
81033,59.60265
81067,59.60265
81100,59.60265
81133,59.01639
81167,59.01639
81200,59.01639
81233,59.01639
81267,59.01639
81300,59.01639
81333,59.01639
81367,59.01639
81400,59.01639
81433,59.01639
81467,59.01639
81500,59.01639
81533,59.01639
81567,59.01639
81600,59.01639
81633,59.01639
81667,59.01639
81700,59.01639
81733,59.01639
81767,59.01639
81800,59.01639
81833,59.01639
81867,58.06452
81900,58.06452
81933,58.06452
81967,58.06452
82000,58.06452
82033,58.06452
82067,58.06452
82100,58.69565
82133,58.69565
82167,58.69565
82200,58.69565
82233,58.69565
82267,58.69565
82300,58.69565
82333,58.69565
82367,58.69565
82400,58.69565
82433,58.69565
82467,58.69565
82500,58.69565
82533,58.69565
82567,58.69565
82600,58.69565
82633,58.69565
82667,58.69565
82700,58.69565
82733,58.69565
82767,58.69565
82800,58.82353000000001
82833,58.82353000000001
82867,58.82353000000001
82900,58.82353000000001
82933,58.82353000000001
82967,58.82353000000001
83000,58.82353000000001
83033,58.82353000000001
83067,58.82353000000001
83100,59.01639
83133,59.01639
83167,59.01639
83200,59.01639
83233,59.01639
83267,59.01639
83300,59.01639
83333,59.01639
83367,59.01639
83400,59.01639
83433,59.01639
83467,59.01639
83500,59.01639
83533,59.01639
83567,59.01639
83600,59.01639
83633,59.01639
83667,59.01639
83700,59.01639
83733,59.01639
83767,59.01639
83800,59.01639
83833,59.60265
83867,59.60265
83900,59.60265
83933,59.60265
83967,59.60265
84000,59.60265
84033,59.60265
84067,59.60265
84100,59.60265
84133,59.60265
84167,59.60265
84200,59.60265
84233,59.60265
84267,59.60265
84300,57.75401
84333,57.75401
84367,57.75401
84400,57.75401
84433,57.75401
84467,57.75401
84500,57.75401
84533,57.75401
84567,57.75401
84600,57.75401
84633,57.75401
84667,57.75401
84700,57.75401
84733,57.75401
84767,57.75401
84800,57.75401
84833,57.75401
84867,57.75401
84900,56.96202
84933,56.96202
84967,56.96202
85000,56.96202
85033,56.96202
85067,56.96202
85100,56.96202
85133,56.96202
85167,56.96202
85200,56.96202
85233,56.96202
85267,56.96202
85300,56.96202
85333,57.14286
85367,57.14286
85400,56.84211
85433,56.84211
85467,56.84211
85500,56.84211
85533,56.84211
85567,56.84211
85600,56.84211
85633,56.84211
85667,56.84211
85700,56.84211
85733,56.84211
85767,56.84211
85800,56.84211
85833,56.84211
85867,56.60378000000001
85900,56.60378000000001
85933,56.60378000000001
85967,56.60378000000001
86000,56.60378000000001
86033,56.60378000000001
86067,56.60378000000001
86100,56.60378000000001
86133,56.60378000000001
86167,56.60378000000001
86200,56.60378000000001
86233,56.60378000000001
86267,56.60378000000001
86300,56.60378000000001
86333,56.60378000000001
86367,57.14286
86400,57.14286
86433,57.14286
86467,57.14286
86500,57.14286
86533,57.14286
86567,57.14286
86600,57.14286
86633,57.14286
86667,57.14286
86700,57.14286
86733,57.14286
86767,57.14286
86800,57.14286
86833,57.14286
86867,57.14286
86900,57.32484
86933,57.32484
86967,57.32484
87000,57.32484
87033,57.32484
87067,57.32484
87100,57.32484
87133,57.32484
87167,57.32484
87200,57.32484
87233,57.32484
87267,57.32484
87300,57.32484
87333,57.32484
87367,57.75401
87400,57.75401
87433,57.75401
87467,57.75401
87500,57.75401
87533,57.75401
87567,57.75401
87600,57.75401
87633,57.75401
87667,57.75401
87700,57.75401
87733,57.75401
87767,57.75401
87800,57.75401
87833,57.75401
87867,57.75401
87900,57.75401
87933,57.75401
87967,56.96202
88000,56.96202
88033,56.96202
88067,56.96202
88100,56.96202
88133,56.96202
88167,56.96202
88200,56.96202
88233,56.96202
88267,56.96202
88300,56.96202
88333,56.96202
88367,56.96202
88400,57.14286
88433,57.14286
88467,57.14286
88500,57.14286
88533,57.14286
88567,57.14286
88600,57.14286
88633,57.14286
88667,57.14286
88700,57.14286
88733,57.14286
88767,57.14286
88800,57.14286
88833,57.14286
88867,57.14286
88900,57.14286
88933,56.60378000000001
88967,56.60378000000001
89000,56.60378000000001
89033,56.60378000000001
89067,56.60378000000001
89100,56.60378000000001
89133,56.60378000000001
89167,56.60378000000001
89200,56.60378000000001
89233,56.60378000000001
89267,56.60378000000001
89300,56.60378000000001
89333,56.60378000000001
89367,57.44681
89400,57.44681
89433,57.44681
89467,57.44681
89500,57.14286
89533,57.14286
89567,57.14286
89600,57.14286
89633,57.14286
89667,57.14286
89700,57.14286
89733,57.14286
89767,57.14286
89800,57.14286
89833,57.14286
89867,57.14286
89900,57.14286
89933,58.82353000000001
89967,58.82353000000001
90000,58.82353000000001
90033,58.82353000000001
90067,58.82353000000001
90100,58.82353000000001
90133,58.82353000000001
90167,58.82353000000001
90200,58.82353000000001
90233,58.82353000000001
90267,58.82353000000001
90300,58.82353000000001
90333,58.82353000000001
90367,58.82353000000001
90400,58.82353000000001
90433,58.82353000000001
90467,58.82353000000001
90500,58.82353000000001
90533,57.75401
90567,57.75401
90600,57.75401
90633,57.75401
90667,57.75401
90700,57.75401
90733,57.75401
90767,57.75401
90800,57.75401
90833,57.75401
90867,57.75401
90900,57.75401
90933,57.75401
90967,57.75401
91000,57.75401
91033,57.75401
91067,57.75401
91100,57.75401
91133,57.69231
91167,57.69231
91200,57.69231
91233,57.69231
91267,57.69231
91300,57.69231
91333,57.69231
91367,57.69231
91400,57.69231
91433,57.69231
91467,57.69231
91500,57.69231
91533,58.06452
91567,58.06452
91600,58.06452
91633,58.06452
91667,58.06452
91700,58.06452
91733,58.06452
91767,58.06452
91800,58.06452
91833,58.06452
91867,58.06452
91900,58.06452
91933,58.06452
91967,58.06452
92000,58.06452
92033,58.06452
92067,58.06452
92100,58.06452
92133,58.06452
92167,58.06452
92200,58.06452
92233,58.06452
92267,58.06452
92300,58.06452
92333,58.06452
92367,58.06452
92400,58.06452
92433,58.06452
92467,58.06452
92500,58.06452
92533,58.06452
92567,58.06452
92600,58.06452
92633,57.44681
92667,57.44681
92700,57.44681
92733,57.44681
92767,57.44681
92800,57.44681
92833,57.44681
92867,57.44681
92900,57.44681
92933,57.44681
92967,57.44681
93000,57.44681
93033,57.44681
93067,57.44681
93100,57.44681
93133,57.44681
93167,57.44681
93200,56.96202
93233,56.96202
93267,56.96202
93300,56.96202
93333,56.96202
93367,56.96202
93400,56.96202
93433,56.96202
93467,56.96202
93500,56.96202
93533,56.96202
93567,56.96202
93600,56.96202
93633,56.96202
93667,56.96202
93700,56.96202
93733,56.96202
93767,56.96202
93800,55.95855
93833,55.95855
93867,55.95855
93900,55.95855
93933,55.95855
93967,55.95855
94000,55.95855
94033,55.95855
94067,55.95855
94100,55.95855
94133,55.95855
94167,55.95855
94200,55.55556
94233,55.55556
94267,55.55556
94300,55.55556
94333,55.55556
94367,55.55556
94400,55.55556
94433,55.55556
94467,55.55556
94500,55.55556
94533,55.55556
94567,55.55556
94600,55.55556
94633,55.55556
94667,55.55556
94700,55.55556
94733,55.55556
94767,55.55556
94800,55.55556
94833,55.55556
94867,55.55556
94900,55.38462
94933,55.38462
94967,55.38462
95000,55.38462
95033,55.38462
95067,55.38462
95100,55.38462
95133,55.38462
95167,55.38462
95200,55.38462
95233,54.54546
95267,54.54546
95300,54.54546
95333,54.54546
95367,54.54546
95400,54.54546
95433,54.54546
95467,54.54546
95500,54.54546
95533,54.54546
95567,54.54546
95600,54.54546
95633,54.54546
95667,54.54546
95700,54.54546
95733,54.54546
95767,54.54546
95800,54.54546
95833,54.54546
95867,54.54546
95900,54.54546
95933,54.54546
95967,54.82233000000001
96000,54.54546
96033,54.54546
96067,54.54546
96100,54.54546
96133,54.54546
96167,54.54546
96200,54.54546
96233,54.87805
96267,54.87805
96300,54.87805
96333,54.87805
96367,54.87805
96400,54.87805
96433,54.87805
96467,54.87805
96500,54.87805
96533,54.87805
96567,54.87805
96600,54.87805
96633,54.87805
96667,54.87805
96700,54.87805
96733,54.87805
96767,54.87805
96800,54.87805
96833,54.87805
96867,54.87805
96900,54.87805
96933,54.87805
96967,54.87805
97000,55.6701
97033,55.6701
97067,55.6701
97100,55.6701
97133,55.6701
97167,55.6701
97200,55.6701
97233,55.6701
97267,55.6701
97300,55.6701
97333,55.6701
97367,54.87805
97400,54.87805
97433,54.87805
97467,54.87805
97500,54.87805
97533,54.87805
97567,54.87805
97600,54.87805
97633,54.87805
97667,54.87805
97700,54.87805
97733,54.87805
97767,54.87805
97800,54.87805
97833,54.87805
97867,54.87805
97900,54.87805
97933,54.87805
97967,54.87805
98000,55.6701
98033,55.6701
98067,55.6701
98100,55.6701
98133,55.6701
98167,55.6701
98200,55.6701
98233,55.6701
98267,55.6701
98300,55.6701
98333,55.6701
98367,55.90062
98400,55.90062
98433,55.90062
98467,55.90062
98500,55.90062
98533,55.90062
98567,55.90062
98600,55.90062
98633,55.90062
98667,55.90062
98700,55.90062
98733,55.90062
98767,55.90062
98800,55.90062
98833,55.90062
98867,55.90062
98900,55.90062
98933,55.90062
98967,55.90062
99000,55.90062
99033,56.25
99067,56.25
99100,56.25
99133,56.25
99167,56.25
99200,56.25
99233,56.25
99267,56.25
99300,56.25
99333,56.25
99367,56.25
99400,56.25
99433,56.25
99467,56.96202
99500,56.96202
99533,56.96202
99567,56.96202
99600,56.96202
99633,56.96202
99667,56.96202
99700,56.96202
99733,56.96202
99767,56.96202
99800,56.96202
99833,56.96202
99867,56.96202
99900,56.96202
99933,56.96202
99967,56.96202
100000,56.96202
100033,56.96202
100067,56.96202
100100,56.96202
100133,56.96202
100167,56.25
100200,56.25
100233,56.25
100267,56.25
100300,56.25
100333,56.25
100367,56.25
100400,56.25
100433,56.25
100467,56.25
100500,56.25
100533,56.25
100567,56.25
100600,56.96202
100633,56.96202
100667,56.96202
100700,56.96202
100733,56.96202
100767,56.96202
100800,56.96202
100833,56.96202
100867,56.96202
100900,56.96202
100933,56.96202
100967,56.96202
101000,56.96202
101033,56.96202
101067,56.96202
101100,56.96202
101133,56.96202
101167,56.96202
101200,56.96202
101233,56.84211
101267,56.84211
101300,56.84211
101333,56.84211
101367,56.84211
101400,56.84211
101433,56.84211
101467,56.84211
101500,56.84211
101533,56.84211
101567,56.84211
101600,56.84211
101633,56.84211
101667,56.84211
101700,56.84211
101733,56.96202
101767,56.96202
101800,56.96202
101833,56.96202
101867,56.96202
101900,56.96202
101933,56.96202
101967,56.96202
102000,56.96202
102033,56.96202
102067,56.96202
102100,56.96202
102133,56.96202
102167,56.96202
102200,56.96202
102233,56.96202
102267,56.96202
102300,56.84211
102333,56.84211
102367,56.84211
102400,56.84211
102433,56.84211
102467,56.84211
102500,56.84211
102533,56.84211
102567,56.84211
102600,56.5445
102633,56.5445
102667,56.5445
102700,56.5445
102733,56.5445
102767,56.5445
102800,56.25
102833,56.25
102867,56.25
102900,56.25
102933,56.25
102967,56.25
103000,56.25
103033,56.25
103067,56.25
103100,56.25
103133,56.25
103167,56.25
103200,56.25
103233,56.25
103267,56.25
103300,56.25
103333,56.25
103367,56.25
103400,56.25
103433,56.25
103467,56.25
103500,56.25
103533,56.25
103567,56.25
103600,56.25
103633,56.25
103667,56.25
103700,56.25
103733,56.25
103767,56.25
103800,56.25
103833,55.55556
103867,55.55556
103900,55.55556
103933,55.55556
103967,55.55556
104000,55.55556
104033,55.55556
104067,55.55556
104100,55.55556
104133,55.55556
104167,55.55556
104200,55.55556
104233,55.55556
104267,55.55556
104300,55.55556
104333,55.55556
104367,56.5445
104400,56.5445
104433,56.5445
104467,56.25
104500,56.25
104533,56.25
104567,56.25
104600,56.25
104633,56.25
104667,56.25
104700,56.25
104733,55.95855
104767,55.95855
104800,55.95855
104833,55.90062
104867,55.90062
104900,55.90062
104933,55.90062
104967,55.90062
105000,55.90062
105033,55.90062
105067,55.90062
105100,55.90062
105133,55.90062
105167,55.90062
105200,55.90062
105233,55.90062
105267,55.90062
105300,55.90062
105333,55.90062
105367,55.90062
105400,55.90062
105433,55.90062
105467,55.90062
105500,55.90062
105533,55.90062
105567,55.38462
105600,55.38462
105633,55.38462
105667,55.38462
105700,55.38462
105733,55.38462
105767,55.38462
105800,55.38462
105833,55.38462
105867,55.38462
105900,55.55556
105933,55.55556
105967,55.55556
106000,55.55556
106033,55.55556
106067,55.55556
106100,55.55556
106133,55.55556
106167,55.55556
106200,55.55556
106233,55.55556
106267,55.55556
106300,55.55556
106333,55.55556
106367,55.55556
106400,55.55556
106433,55.55556
106467,55.55556
106500,55.55556
106533,55.55556
106567,55.55556
106600,55.95855
106633,55.95855
106667,55.95855
106700,55.95855
106733,55.95855
106767,55.95855
106800,55.95855
106833,55.95855
106867,55.95855
106900,55.95855
106933,55.95855
106967,55.95855
107000,55.90062
107033,55.90062
107067,55.90062
107100,55.90062
107133,55.90062
107167,55.90062
107200,55.90062
107233,55.90062
107267,55.90062
107300,55.90062
107333,55.90062
107367,55.90062
107400,55.90062
107433,55.90062
107467,55.90062
107500,55.90062
107533,55.90062
107567,56.84211
107600,56.84211
107633,56.84211
107667,56.84211
107700,56.84211
107733,56.84211
107767,56.84211
107800,56.84211
107833,56.84211
107867,56.84211
107900,56.84211
107933,56.84211
107967,56.84211
108000,56.84211
108033,56.84211
108067,57.32484
108100,57.32484
108133,57.32484
108167,57.32484
108200,57.32484
108233,57.32484
108267,57.32484
108300,57.32484
108333,57.32484
108367,57.32484
108400,57.32484
108433,57.32484
108467,57.32484
108500,57.32484
108533,58.06452
108567,58.06452
108600,58.06452
108633,57.75401
108667,57.75401
108700,57.75401
108733,57.75401
108767,57.75401
108800,57.75401
108833,57.75401
108867,57.75401
108900,57.75401
108933,57.75401
108967,57.75401
109000,57.75401
109033,57.75401
109067,57.75401
109100,57.75401
109133,58.44156
109167,58.44156
109200,58.44156
109233,58.44156
109267,58.44156
109300,58.44156
109333,58.44156
109367,58.44156
109400,58.44156
109433,58.44156
109467,58.44156
109500,58.44156
109533,58.44156
109567,58.44156
109600,58.06452
109633,58.06452
109667,58.06452
109700,58.06452
109733,58.06452
109767,58.06452
109800,58.06452
109833,58.06452
109867,58.06452
109900,58.06452
109933,58.06452
109967,58.06452
110000,58.06452
110033,58.06452
110067,58.06452
110100,58.06452
110133,58.06452
110167,58.06452
110200,58.06452
110233,58.06452
110267,58.06452
110300,58.06452
110333,58.06452
110367,58.06452
110400,58.06452
110433,58.06452
110467,59.66851
110500,59.66851
110533,59.66851
110567,59.66851
110600,59.66851
110633,59.66851
110667,59.66851
110700,59.66851
110733,59.66851
110767,59.66851
110800,59.66851
110833,59.66851
110867,59.66851
110900,59.66851
110933,59.66851
110967,59.66851
111000,59.66851
111033,59.66851
111067,59.66851
111100,59.66851
111133,59.66851
111167,59.66851
111200,59.66851
111233,59.66851
111267,61.22449
111300,61.22449
111333,61.22449
111367,61.22449
111400,61.22449
111433,61.36364
111467,61.36364
111500,61.36364
111533,61.36364
111567,61.36364
111600,61.36364
111633,61.36364
111667,61.36364
111700,61.36364
111733,61.36364
111767,61.36364
111800,61.36364
111833,61.36364
111867,61.36364
111900,61.36364
111933,61.36364
111967,61.36364
112000,61.36364
112033,61.36364
112067,61.36364
112100,61.36364
112133,61.36364
112167,61.36364
112200,61.36364
112233,61.36364
112267,61.36364
112300,61.36364
112333,61.36364
112367,61.36364
112400,62.06896999999999
112433,62.06896999999999
112467,62.06896999999999
112500,62.06896999999999
112533,62.06896999999999
112567,62.06896999999999
112600,62.06896999999999
112633,59.66851
112667,59.66851
112700,59.66851
112733,59.66851
112767,59.66851
112800,59.66851
112833,59.66851
112867,59.66851
112900,59.66851
112933,59.66851
112967,59.66851
113000,59.66851
113033,59.66851
113067,59.66851
113100,59.66851
113133,59.66851
113167,59.66851
113200,59.66851
113233,59.66851
113267,59.66851
113300,59.66851
113333,59.66851
113367,59.66851
113400,59.66851
113433,59.21053000000001
113467,59.21053000000001
113500,59.21053000000001
113533,59.21053000000001
113567,59.21053000000001
113600,59.21053000000001
113633,59.34066
113667,59.34066
113700,59.34066
113733,59.34066
113767,59.34066
113800,59.34066
113833,59.34066
113867,59.34066
113900,59.34066
113933,59.34066
113967,59.34066
114000,59.34066
114033,59.34066
114067,59.34066
114100,59.34066
114133,59.34066
114167,59.34066
114200,59.34066
114233,59.34066
114267,59.34066
114300,59.34066
114333,59.34066
114367,59.34066
114400,58.82353000000001
114433,58.82353000000001
114467,58.82353000000001
114500,58.82353000000001
114533,58.82353000000001
114567,59.66851
114600,59.66851
114633,59.66851
114667,59.66851
114700,59.66851
114733,59.66851
114767,59.66851
114800,59.66851
114833,59.66851
114867,59.66851
114900,59.66851
114933,59.34066
114967,59.34066
115000,59.34066
115033,59.34066
115067,59.34066
115100,59.34066
115133,59.34066
115167,59.34066
115200,59.34066
115233,59.34066
115267,59.34066
115300,59.34066
115333,59.34066
115367,60.40268
115400,60.40268
115433,60.40268
115467,60.40268
115500,60.40268
115533,60.40268
115567,60.40268
115600,60.40268
115633,60.40268
115667,60.40268
115700,59.34066
115733,59.34066
115767,59.34066
115800,59.34066
115833,59.34066
115867,59.34066
115900,59.34066
115933,59.34066
115967,59.34066
116000,59.34066
116033,59.34066
116067,59.34066
116100,59.34066
116133,59.34066
116167,59.34066
116200,59.34066
116233,59.34066
116267,59.34066
116300,59.34066
116333,59.34066
116367,59.34066
116400,59.34066
116433,59.34066
116467,57.32484
116500,57.32484
116533,57.32484
116567,57.32484
116600,57.32484
116633,57.32484
116667,57.32484
116700,57.32484
116733,57.44681
116767,57.44681
116800,57.44681
116833,57.14286
116867,57.14286
116900,57.14286
116933,57.14286
116967,57.14286
117000,57.14286
117033,57.14286
117067,57.14286
117100,57.44681
117133,57.44681
117167,57.44681
117200,57.44681
117233,57.44681
117267,57.44681
117300,56.60378000000001
117333,56.60378000000001
117367,56.60378000000001
117400,56.60378000000001
117433,56.60378000000001
117467,56.60378000000001
117500,56.60378000000001
117533,56.60378000000001
117567,56.60378000000001
117600,56.60378000000001
117633,56.60378000000001
117667,56.60378000000001
117700,57.44681
117733,57.44681
117767,57.44681
117800,57.44681
117833,57.44681
117867,57.44681
117900,57.44681
117933,57.44681
117967,57.44681
118000,57.44681
118033,57.44681
118067,57.44681
118100,57.44681
118133,57.44681
118167,57.44681
118200,57.44681
118233,57.44681
118267,59.21053000000001
118300,59.21053000000001
118333,59.21053000000001
118367,59.21053000000001
118400,59.21053000000001
118433,59.21053000000001
118467,59.21053000000001
118500,59.21053000000001
118533,59.21053000000001
118567,59.21053000000001
118600,59.21053000000001
118633,59.21053000000001
118667,59.66851
118700,59.34066
118733,59.34066
118767,59.34066
118800,59.34066
118833,59.34066
118867,59.34066
118900,59.34066
118933,59.34066
118967,59.34066
119000,59.34066
119033,59.34066
119067,59.34066
119100,59.34066
119133,59.34066
119167,59.34066
119200,59.34066
119233,59.34066
119267,59.34066
119300,59.34066
119333,59.34066
119367,59.34066
119400,59.34066
119433,59.34066
119467,59.21053000000001
119500,59.21053000000001
119533,59.21053000000001
119567,59.21053000000001
119600,59.21053000000001
119633,59.21053000000001
119667,59.21053000000001
119700,59.21053000000001
119733,59.21053000000001
119767,58.69565
119800,58.69565
119833,58.69565
119867,58.69565
119900,58.69565
119933,58.69565
119967,58.69565
120000,58.69565
120033,58.69565
120067,58.69565
120100,58.69565
120133,58.69565
120167,58.69565
120200,58.69565
120233,58.69565
120267,58.69565
120300,58.69565
120333,58.69565
120367,58.69565
120400,58.69565
120433,58.69565
120467,58.06452
120500,58.06452
120533,58.06452
120567,58.06452
120600,58.06452
120633,58.44156
120667,58.44156
120700,58.44156
120733,58.44156
120767,58.69565
120800,58.69565
120833,58.69565
120867,58.69565
120900,58.69565
120933,58.37838000000001
120967,58.37838000000001
121000,58.37838000000001
121033,58.37838000000001
121067,58.37838000000001
121100,58.37838000000001
121133,58.37838000000001
121167,58.37838000000001
121200,58.37838000000001
121233,58.37838000000001
121267,58.37838000000001
121300,58.37838000000001
121333,58.37838000000001
121367,58.37838000000001
121400,58.37838000000001
121433,59.21053000000001
121467,59.21053000000001
121500,59.21053000000001
121533,59.21053000000001
121567,59.21053000000001
121600,59.21053000000001
121633,59.21053000000001
121667,59.21053000000001
121700,59.21053000000001
121733,59.21053000000001
121767,59.21053000000001
121800,59.01639
121833,59.01639
121867,59.01639
121900,59.01639
121933,59.01639
121967,59.01639
122000,59.01639
122033,59.01639
122067,59.01639
122100,59.01639
122133,58.69565
122167,58.69565
122200,58.69565
122233,58.69565
122267,58.69565
122300,58.69565
122333,58.69565
122367,58.69565
122400,58.69565
122433,58.69565
122467,58.69565
122500,58.69565
122533,58.82353000000001
122567,58.82353000000001
122600,58.82353000000001
122633,58.82353000000001
122667,58.82353000000001
122700,58.82353000000001
122733,58.82353000000001
122767,58.82353000000001
122800,58.82353000000001
122833,58.82353000000001
122867,58.82353000000001
122900,59.21053000000001
122933,58.06452
122967,58.06452
123000,58.06452
123033,58.06452
123067,58.06452
123100,58.06452
123133,58.06452
123167,58.06452
123200,58.06452
123233,58.06452
123267,58.06452
123300,58.06452
123333,58.06452
123367,58.06452
123400,58.06452
123433,58.06452
123467,58.06452
123500,58.06452
123533,56.96202
123567,56.96202
123600,56.96202
123633,56.96202
123667,56.96202
123700,56.96202
123733,56.96202
123767,56.96202
123800,56.96202
123833,56.96202
123867,56.96202
123900,56.96202
123933,57.75401
123967,57.75401
124000,57.75401
124033,57.75401
124067,57.75401
124100,57.75401
124133,57.75401
124167,57.75401
124200,57.75401
124233,57.75401
124267,57.75401
124300,57.75401
124333,57.75401
124367,57.75401
124400,57.75401
124433,57.75401
124467,57.75401
124500,57.32484
124533,57.32484
124567,57.32484
124600,57.32484
124633,57.32484
124667,57.32484
124700,57.32484
124733,57.32484
124767,57.32484
124800,57.32484
124833,57.32484
124867,57.32484
124900,57.32484
124933,57.32484
124967,57.14286
125000,57.14286
125033,57.14286
125067,57.14286
125100,57.14286
125133,57.14286
125167,57.14286
125200,57.14286
125233,57.14286
125267,57.14286
125300,57.14286
125333,57.14286
125367,57.14286
125400,57.14286
125433,57.14286
125467,57.14286
125500,57.32484
125533,57.32484
125567,57.32484
125600,57.32484
125633,57.32484
125667,57.32484
125700,57.32484
125733,57.32484
125767,57.32484
125800,57.32484
125833,57.32484
125867,57.32484
125900,57.32484
125933,57.32484
125967,57.32484
126000,57.32484
126033,57.32484
126067,57.32484
126100,57.32484
126133,57.32484
126167,57.32484
126200,55.6701
126233,55.6701
126267,55.6701
126300,55.6701
126333,55.6701
126367,55.6701
126400,55.6701
126433,55.6701
126467,55.6701
126500,55.6701
126533,55.6701
126567,54.87805
126600,54.87805
126633,54.87805
126667,54.87805
126700,54.87805
126733,54.87805
126767,54.87805
126800,54.87805
126833,54.87805
126867,54.87805
126900,54.87805
126933,54.87805
126967,54.87805
127000,54.87805
127033,54.87805
127067,54.87805
127100,54.87805
127133,54.87805
127167,54.87805
127200,54.87805
127233,54.87805
127267,55.10204
127300,55.10204
127333,55.10204
127367,55.10204
127400,55.10204
127433,55.10204
127467,55.10204
127500,55.10204
127533,55.10204
127567,54.87805
127600,54.87805
127633,54.87805
127667,54.87805
127700,54.87805
127733,54.87805
127767,54.87805
127800,54.87805
127833,54.87805
127867,54.87805
127900,54.87805
127933,54.87805
127967,54.87805
128000,54.87805
128033,54.87805
128067,54.87805
128100,54.87805
128133,54.87805
128167,54.87805
128200,54.87805
128233,54.87805
128267,54.87805
128300,55.38462
128333,55.38462
128367,55.38462
128400,55.38462
128433,55.38462
128467,55.38462
128500,55.38462
128533,55.38462
128567,55.38462
128600,55.38462
128633,55.90062
128667,55.90062
128700,55.90062
128733,55.90062
128767,55.90062
128800,55.90062
128833,55.90062
128867,55.90062
128900,55.90062
128933,55.90062
128967,55.90062
129000,55.90062
129033,55.90062
129067,55.90062
129100,55.90062
129133,55.90062
129167,55.90062
129200,55.90062
129233,55.90062
129267,55.55556
129300,55.55556
129333,55.55556
129367,55.6701
129400,55.6701
129433,55.6701
129467,55.38462
129500,55.38462
129533,55.38462
129567,55.38462
129600,55.38462
129633,55.38462
129667,55.38462
129700,55.38462
129733,54.54546
129767,54.54546
129800,54.54546
129833,54.54546
129867,54.54546
129900,54.54546
129933,54.54546
129967,54.54546
130000,54.54546
130033,54.54546
130067,54.54546
130100,54.54546
130133,54.54546
130167,54.54546
130200,54.54546
130233,54.54546
130267,54.54546
130300,54.54546
130333,54.54546
130367,55.6701
130400,55.6701
130433,55.6701
130467,55.6701
130500,55.6701
130533,55.6701
130567,55.6701
130600,55.6701
130633,55.6701
130667,55.6701
130700,55.6701
130733,55.90062
130767,55.90062
130800,55.90062
130833,55.90062
130867,55.90062
130900,55.90062
130933,55.90062
130967,55.90062
131000,55.90062
131033,55.90062
131067,55.90062
131100,55.90062
131133,55.90062
131167,55.90062
131200,55.90062
131233,55.90062
131267,55.90062
131300,55.90062
131333,55.90062
131367,55.90062
131400,56.25
131433,56.25
131467,56.25
131500,56.25
131533,56.25
131567,56.25
131600,56.25
131633,56.25
131667,56.25
131700,56.25
131733,56.25
131767,56.25
131800,56.25
131833,57.69231
131867,57.69231
131900,57.69231
131933,57.69231
131967,57.69231
132000,57.69231
132033,57.69231
132067,57.69231
132100,57.69231
132133,57.69231
132167,57.69231
132200,57.69231
132233,57.69231
132267,57.69231
132300,57.69231
132333,57.69231
132367,57.69231
132400,58.06452
132433,58.06452
132467,58.06452
132500,58.06452
132533,58.06452
132567,58.06452
132600,58.06452
132633,58.06452
132667,58.06452
132700,58.06452
132733,58.06452
132767,58.06452
132800,58.06452
132833,58.06452
132867,58.06452
132900,58.06452
132933,58.06452
132967,58.06452
133000,58.06452
133033,58.44156
133067,58.44156
133100,58.44156
133133,58.44156
133167,58.44156
133200,58.44156
133233,58.44156
133267,58.44156
133300,58.44156
133333,59.34066
133367,59.34066
133400,59.34066
133433,59.34066
133467,59.34066
133500,59.34066
133533,59.34066
133567,59.34066
133600,59.34066
133633,59.34066
133667,59.34066
133700,59.34066
133733,59.34066
133767,59.34066
133800,59.66851
133833,59.66851
133867,59.66851
133900,59.66851
133933,59.66851
133967,59.66851
134000,59.66851
134033,59.66851
134067,59.66851
134100,60.0
134133,60.0
134167,60.0
134200,60.0
134233,60.67416
134267,60.67416
134300,60.67416
134333,60.67416
134367,60.67416
134400,60.67416
134433,60.67416
134467,60.67416
134500,60.67416
134533,60.67416
134567,60.67416
134600,60.67416
134633,60.67416
134667,60.67416
134700,60.67416
134733,61.01695
134767,61.01695
134800,61.01695
134833,61.01695
134867,61.01695
134900,61.01695
134933,61.01695
134967,61.01695
135000,61.01695
135033,61.01695
135067,62.06896999999999
135100,62.37624
135133,63.52941
135167,63.52941
135200,63.52941
135233,63.52941
135267,63.52941
135300,63.52941
135333,63.52941
135367,63.52941
135400,63.52941
135433,63.52941
135467,63.52941
135500,63.52941
135533,63.52941
135567,63.52941
135600,63.52941
135633,63.52941
135667,63.52941
135700,63.52941
135733,63.52941
135767,63.52941
135800,63.52941
135833,63.52941
135867,63.52941
135900,64.28571
135933,64.28571
135967,64.28571
136000,64.28571
136033,64.28571
136067,64.28571
136100,64.28571
136133,64.28571
136167,64.28571
136200,65.06024000000001
136233,65.06024000000001
136267,65.06024000000001
136300,65.06024000000001
136333,65.06024000000001
136367,65.06024000000001
136400,65.06024000000001
136433,65.06024000000001
136467,65.06024000000001
136500,65.06024000000001
136533,65.06024000000001
136567,65.06024000000001
136600,65.06024000000001
136633,65.06024000000001
136667,65.06024000000001
136700,65.06024000000001
136733,65.06024000000001
136767,65.06024000000001
136800,65.06024000000001
136833,65.06024000000001
136867,65.06024000000001
136900,65.06024000000001
136933,63.95939
136967,63.95939
137000,63.95939
137033,63.95939
137067,63.95939
137100,63.95939
137133,63.95939
137167,63.95939
137200,65.06024000000001
137233,65.06024000000001
137267,65.06024000000001
137300,65.06024000000001
137333,65.06024000000001
137367,65.06024000000001
137400,65.06024000000001
137433,65.06024000000001
137467,65.06024000000001
137500,65.06024000000001
137533,65.06024000000001
137567,65.06024000000001
137600,65.06024000000001
137633,65.06024000000001
137667,65.06024000000001
137700,65.06024000000001
137733,65.06024000000001
137767,65.06024000000001
137800,65.06024000000001
137833,65.06024000000001
137867,65.06024000000001
137900,65.06024000000001
137933,65.06024000000001
137967,65.06024000000001
138000,63.63636
138033,63.63636
138067,63.63636
138100,63.63636
138133,63.63636
138167,63.63636
138200,63.63636
138233,64.28571
138267,64.28571
138300,64.28571
138333,64.28571
138367,64.28571
138400,64.28571
138433,64.28571
138467,64.28571
138500,64.28571
138533,64.28571
138567,64.28571
138600,64.28571
138633,64.28571
138667,64.28571
138700,64.28571
138733,64.28571
138767,64.28571
138800,64.28571
138833,64.28571
138867,64.28571
138900,64.28571
138933,64.28571
138967,64.28571
139000,63.63636
139033,63.63636
139067,63.63636
139100,63.63636
139133,63.63636
139167,63.63636
139200,63.63636
139233,63.15789
139267,63.15789
139300,63.15789
139333,63.15789
139367,63.15789
139400,63.15789
139433,63.15789
139467,63.15789
139500,63.15789
139533,63.15789
139567,63.15789
139600,63.15789
139633,63.15789
139667,63.15789
139700,63.15789
139733,63.15789
139767,63.15789
139800,63.15789
139833,63.15789
139867,63.15789
139900,63.15789
139933,63.15789
139967,63.15789
140000,63.15789
140033,62.37624
140067,62.37624
140100,62.37624
140133,62.06896999999999
140167,62.06896999999999
140200,62.06896999999999
140233,62.06896999999999
140267,62.06896999999999
140300,62.06896999999999
140333,62.06896999999999
140367,62.06896999999999
140400,62.06896999999999
140433,62.06896999999999
140467,62.06896999999999
140500,62.06896999999999
140533,62.06896999999999
140567,62.06896999999999
140600,62.06896999999999
140633,62.06896999999999
140667,62.06896999999999
140700,62.06896999999999
140733,62.06896999999999
140767,62.06896999999999
140800,62.06896999999999
140833,62.06896999999999
140867,62.06896999999999
140900,62.06896999999999
140933,62.06896999999999
140967,62.37624
141000,62.37624
141033,62.37624
141067,60.67416
141100,60.67416
141133,60.67416
141167,60.67416
141200,60.67416
141233,60.67416
141267,60.67416
141300,60.67416
141333,60.67416
141367,60.67416
141400,60.67416
141433,60.67416
141467,60.67416
141500,60.67416
141533,60.67416
141567,60.67416
141600,60.67416
141633,60.67416
141667,60.67416
141700,60.67416
141733,60.67416
141767,60.67416
141800,60.67416
141833,60.67416
141867,59.21053000000001
141900,59.21053000000001
141933,59.21053000000001
141967,59.34066
142000,59.34066
142033,59.34066
142067,59.34066
142100,59.34066
142133,59.34066
142167,59.34066
142200,59.34066
142233,59.34066
142267,59.34066
142300,59.34066
142333,59.34066
142367,59.34066
142400,59.34066
142433,59.34066
142467,59.34066
142500,59.34066
142533,59.34066
142567,59.34066
142600,59.34066
142633,59.34066
142667,59.34066
142700,59.34066
142733,59.60265
142767,59.60265
142800,59.60265
142833,59.60265
142867,59.60265
142900,59.60265
142933,59.60265
142967,59.66851
143000,59.66851
143033,59.66851
143067,59.66851
143100,59.66851
143133,59.66851
143167,59.66851
143200,59.66851
143233,59.66851
143267,59.66851
143300,59.66851
143333,59.66851
143367,59.66851
143400,59.66851
143433,59.66851
143467,59.66851
143500,59.66851
143533,59.66851
143567,59.66851
143600,59.66851
143633,59.66851
143667,59.66851
143700,59.66851
143733,59.66851
143767,60.0
143800,60.0
143833,60.0
143867,61.01695
143900,61.01695
143933,61.01695
143967,61.01695
144000,61.01695
144033,61.01695
144067,61.01695
144100,61.01695
144133,61.01695
144167,61.01695
144200,61.01695
144233,61.01695
144267,61.01695
144300,61.01695
144333,61.01695
144367,61.01695
144400,61.01695
144433,61.01695
144467,61.01695
144500,61.01695
144533,61.01695
144567,61.01695
144600,61.01695
144633,61.01695
144667,61.01695
144700,61.01695
144733,61.01695
144767,61.01695
144800,62.06896999999999
144833,62.06896999999999
144867,62.06896999999999
144900,62.06896999999999
144933,62.06896999999999
144967,62.06896999999999
145000,62.06896999999999
145033,62.06896999999999
145067,62.06896999999999
145100,62.06896999999999
145133,62.06896999999999
145167,62.06896999999999
145200,62.06896999999999
145233,62.06896999999999
145267,62.06896999999999
145300,62.06896999999999
145333,62.06896999999999
145367,62.06896999999999
145400,62.06896999999999
145433,62.06896999999999
145467,62.06896999999999
145500,62.06896999999999
145533,62.06896999999999
145567,62.06896999999999
145600,62.06896999999999
145633,62.06896999999999
145667,62.06896999999999
145700,62.06896999999999
145733,62.06896999999999
145767,62.06896999999999
145800,61.76471
145833,62.42775
145867,62.42775
145900,62.42775
145933,62.42775
145967,62.42775
146000,62.42775
146033,62.42775
146067,62.42775
146100,62.42775
146133,62.42775
146167,62.42775
146200,62.42775
146233,62.42775
146267,62.42775
146300,62.42775
146333,62.42775
146367,62.42775
146400,62.42775
146433,62.42775
146467,62.42775
146500,62.42775
146533,62.42775
146567,62.42775
146600,62.42775
146633,62.42775
146667,62.42775
146700,62.42775
146733,62.42775
146767,62.42775
146800,62.06896999999999
146833,62.06896999999999
146867,61.71429000000001
146900,61.71429000000001
146933,61.71429000000001
146967,61.71429000000001
147000,62.06896999999999
147033,62.06896999999999
147067,62.06896999999999
147100,62.06896999999999
147133,62.06896999999999
147167,62.06896999999999
147200,62.06896999999999
147233,62.06896999999999
147267,62.06896999999999
147300,62.06896999999999
147333,62.06896999999999
147367,62.06896999999999
147400,62.06896999999999
147433,62.06896999999999
147467,62.06896999999999
147500,62.06896999999999
147533,62.06896999999999
147567,62.06896999999999
147600,62.06896999999999
147633,63.0
147667,63.0
147700,63.0
147733,63.0
147767,63.0
147800,63.52941
147833,63.52941
147867,63.52941
147900,63.52941
147933,63.52941
147967,63.52941
148000,63.52941
148033,63.52941
148067,63.52941
148100,63.52941
148133,63.52941
148167,63.52941
148200,63.52941
148233,63.52941
148267,63.52941
148300,63.52941
148333,63.52941
148367,63.52941
148400,63.52941
148433,63.52941
148467,63.52941
148500,63.52941
148533,63.52941
148567,63.63636
148600,63.63636
148633,63.63636
148667,63.63636
148700,63.63636
148733,63.63636
148767,63.63636
148800,64.28571
148833,64.28571
148867,64.28571
148900,64.28571
148933,64.28571
148967,64.28571
149000,64.28571
149033,64.28571
149067,64.28571
149100,64.28571
149133,64.28571
149167,64.28571
149200,64.28571
149233,64.28571
149267,64.28571
149300,64.28571
149333,64.28571
149367,64.28571
149400,64.28571
149433,64.28571
149467,64.28571
149500,64.28571
149533,64.28571
149567,63.63636
149600,63.63636
149633,63.31658
149667,63.31658
149700,63.31658
149733,63.31658
149767,63.31658
149800,62.7907
149833,62.7907
149867,63.15789
149900,63.15789
149933,63.15789
149967,63.15789
150000,63.15789
150033,63.15789
150067,63.15789
150100,63.15789
150133,63.15789
150167,63.15789
150200,63.15789
150233,63.15789
150267,63.15789
150300,63.15789
150333,63.15789
150367,63.15789
150400,63.15789
150433,63.15789
150467,63.15789
150500,63.31658
150533,63.31658
150567,63.31658
150600,63.31658
150633,63.31658
150667,63.31658
150700,63.15789
150733,63.15789
150767,63.15789
150800,63.52941
150833,63.52941
150867,63.52941
150900,63.52941
150933,63.52941
150967,63.52941
151000,63.52941
151033,63.52941
151067,63.52941
151100,63.52941
151133,63.52941
151167,63.52941
151200,63.52941
151233,63.52941
151267,63.52941
151300,63.52941
151333,63.52941
151367,63.52941
151400,63.52941
151433,63.31658
151467,63.31658
151500,63.31658
151533,63.31658
151567,63.31658
151600,63.31658
151633,63.905330000000006
151667,63.905330000000006
151700,63.905330000000006
151733,63.905330000000006
151767,63.905330000000006
151800,63.905330000000006
151833,63.905330000000006
151867,63.905330000000006
151900,63.905330000000006
151933,63.905330000000006
151967,63.905330000000006
152000,63.905330000000006
152033,63.905330000000006
152067,63.905330000000006
152100,63.905330000000006
152133,63.905330000000006
152167,63.905330000000006
152200,63.905330000000006
152233,63.905330000000006
152267,63.905330000000006
152300,63.905330000000006
152333,63.905330000000006
152367,63.905330000000006
152400,63.63636
152433,63.63636
152467,63.63636
152500,63.63636
152533,63.63636
152567,63.63636
152600,63.63636
152633,63.905330000000006
152667,63.905330000000006
152700,63.905330000000006
152733,63.905330000000006
152767,63.905330000000006
152800,63.905330000000006
152833,63.905330000000006
152867,63.905330000000006
152900,63.905330000000006
152933,63.905330000000006
152967,63.905330000000006
153000,63.905330000000006
153033,63.905330000000006
153067,63.905330000000006
153100,63.905330000000006
153133,63.905330000000006
153167,63.905330000000006
153200,63.905330000000006
153233,63.905330000000006
153267,63.905330000000006
153300,63.905330000000006
153333,63.95939
153367,63.95939
153400,63.95939
153433,63.95939
153467,63.95939
153500,63.95939
153533,63.95939
153567,63.95939
153600,62.7907
153633,62.7907
153667,62.7907
153700,62.7907
153733,62.7907
153767,62.7907
153800,62.7907
153833,62.7907
153867,62.7907
153900,62.7907
153933,62.7907
153967,62.7907
154000,62.7907
154033,62.7907
154067,62.7907
154100,62.7907
154133,62.7907
154167,62.7907
154200,62.7907
154233,62.7907
154267,63.0
154300,63.0
154333,63.0
154367,63.0
154400,63.0
154433,63.31658
154467,63.15789
154500,63.15789
154533,63.15789
154567,63.15789
154600,63.15789
154633,63.15789
154667,63.15789
154700,63.15789
154733,63.15789
154767,63.15789
154800,63.15789
154833,63.15789
154867,63.15789
154900,63.15789
154933,63.15789
154967,63.15789
155000,63.15789
155033,63.15789
155067,63.15789
155100,63.15789
155133,63.15789
155167,63.15789
155200,63.15789
155233,63.15789
155267,63.15789
155300,63.15789
155333,63.15789
155367,61.76471
155400,62.06896999999999
155433,62.06896999999999
155467,62.06896999999999
155500,62.06896999999999
155533,62.06896999999999
155567,62.06896999999999
155600,62.06896999999999
155633,62.06896999999999
155667,62.06896999999999
155700,62.06896999999999
155733,62.06896999999999
155767,62.06896999999999
155800,62.06896999999999
155833,62.06896999999999
155867,62.06896999999999
155900,62.06896999999999
155933,62.06896999999999
155967,62.06896999999999
156000,62.06896999999999
156033,62.06896999999999
156067,62.06896999999999
156100,62.06896999999999
156133,62.06896999999999
156167,62.06896999999999
156200,62.06896999999999
156233,62.06896999999999
156267,62.06896999999999
156300,62.06896999999999
156333,62.06896999999999
156367,62.06896999999999
156400,61.22449
156433,61.22449
156467,61.22449
156500,61.22449
156533,59.34066
156567,59.34066
156600,59.34066
156633,59.34066
156667,59.34066
156700,59.34066
156733,59.34066
156767,59.34066
156800,59.34066
156833,59.34066
156867,59.34066
156900,59.34066
156933,59.34066
156967,59.34066
157000,59.34066
157033,59.34066
157067,59.34066
157100,59.34066
157133,59.34066
157167,59.34066
157200,59.34066
157233,59.34066
157267,59.34066
157300,58.82353000000001
157333,58.82353000000001
157367,58.82353000000001
157400,58.82353000000001
157433,58.82353000000001
157467,59.66851
157500,59.66851
157533,59.66851
157567,59.66851
157600,59.66851
157633,59.66851
157667,59.66851
157700,59.66851
157733,59.66851
157767,59.66851
157800,59.66851
157833,59.66851
157867,59.66851
157900,59.66851
157933,59.66851
157967,59.66851
158000,59.66851
158033,59.66851
158067,59.66851
158100,59.66851
158133,59.66851
158167,59.66851
158200,59.66851
158233,59.66851
158267,59.21053000000001
158300,59.21053000000001
158333,59.21053000000001
158367,60.33519
158400,60.33519
158433,60.33519
158467,60.33519
158500,60.33519
158533,60.33519
158567,60.33519
158600,60.33519
158633,60.33519
158667,60.33519
158700,60.33519
158733,60.33519
158767,60.33519
158800,60.33519
158833,60.33519
158867,60.33519
158900,60.33519
158933,60.33519
158967,60.33519
159000,60.33519
159033,60.33519
159067,60.33519
159100,60.33519
159133,60.33519
159167,60.33519
159200,60.33519
159233,59.60265
159267,60.67416
159300,60.67416
159333,60.67416
159367,60.67416
159400,60.67416
159433,60.67416
159467,60.67416
159500,60.67416
159533,60.67416
159567,60.67416
159600,60.67416
159633,60.67416
159667,60.33519
159700,60.33519
159733,60.33519
159767,60.33519
159800,60.33519
159833,60.33519
159867,60.33519
159900,60.33519
159933,60.33519
159967,60.33519
160000,60.33519
160033,60.33519
160067,60.33519
160100,60.33519
160133,60.33519
160167,59.60265
160200,59.60265
160233,60.67416
160267,60.67416
160300,60.67416
160333,60.67416
160367,60.67416
160400,60.67416
160433,60.67416
160467,60.67416
160500,60.67416
160533,60.67416
160567,60.67416
160600,60.67416
160633,60.67416
160667,60.67416
160700,60.67416
160733,60.67416
160767,60.67416
160800,60.67416
160833,60.67416
160867,60.67416
160900,60.67416
160933,60.67416
160967,60.67416
161000,62.37624
161033,62.37624
161067,62.37624
161100,63.905330000000006
161133,63.905330000000006
161167,63.905330000000006
161200,63.905330000000006
161233,63.905330000000006
161267,63.905330000000006
161300,63.905330000000006
161333,63.905330000000006
161367,63.905330000000006
161400,63.905330000000006
161433,63.905330000000006
161467,63.905330000000006
161500,63.905330000000006
161533,63.905330000000006
161567,63.905330000000006
161600,63.905330000000006
161633,63.905330000000006
161667,64.28571
161700,64.28571
161733,64.28571
161767,64.28571
161800,64.28571
161833,64.28571
161867,64.28571
161900,64.28571
161933,64.28571
161967,63.63636
162000,63.63636
162033,63.63636
162067,63.63636
162100,63.63636
162133,63.63636
162167,63.63636
162200,66.25766999999999
162233,66.25766999999999
162267,66.25766999999999
162300,66.25766999999999
162333,66.25766999999999
162367,66.25766999999999
162400,66.25766999999999
162433,66.25766999999999
162467,66.25766999999999
162500,66.25766999999999
162533,66.25766999999999
162567,66.25766999999999
162600,66.25766999999999
162633,66.25766999999999
162667,66.25766999999999
162700,66.25766999999999
162733,66.25766999999999
162767,66.25766999999999
162800,66.25766999999999
162833,66.25766999999999
162867,66.25766999999999
162900,66.25766999999999
162933,66.25766999999999
162967,66.25766999999999
163000,66.25766999999999
163033,66.25766999999999
163067,64.28571
163100,64.28571
163133,64.28571
163167,64.28571
163200,64.28571
163233,64.28571
163267,64.28571
163300,64.28571
163333,64.28571
163367,64.28571
163400,64.28571
163433,64.28571
163467,64.28571
163500,64.28571
163533,64.28571
163567,64.28571
163600,64.28571
163633,64.28571
163667,64.28571
163700,64.28571
163733,64.28571
163767,64.28571
163800,64.28571
163833,64.28571
163867,64.28571
163900,64.28571
163933,64.28571
163967,64.28571
164000,64.28571
164033,64.28571
164067,63.63636
164100,63.63636
164133,63.63636
164167,63.63636
164200,63.63636
164233,63.63636
164267,63.63636
164300,63.15789
164333,63.15789
164367,63.15789
164400,63.15789
164433,63.15789
164467,63.15789
164500,63.15789
164533,63.15789
164567,63.15789
164600,63.15789
164633,63.15789
164667,63.15789
164700,63.15789
164733,63.15789
164767,63.15789
164800,63.15789
164833,63.15789
164867,63.15789
164900,63.15789
164933,63.15789
164967,63.15789
165000,63.15789
165033,63.15789
165067,63.15789
165100,62.37624
165133,62.37624
165167,62.37624
165200,61.71429000000001
165233,61.71429000000001
165267,61.71429000000001
165300,61.71429000000001
165333,61.71429000000001
165367,61.71429000000001
165400,61.71429000000001
165433,61.71429000000001
165467,61.71429000000001
165500,61.71429000000001
165533,61.71429000000001
165567,61.71429000000001
165600,61.71429000000001
165633,61.71429000000001
165667,61.71429000000001
165700,61.71429000000001
165733,61.71429000000001
165767,61.71429000000001
165800,61.71429000000001
165833,61.71429000000001
165867,61.71429000000001
165900,61.71429000000001
165933,61.71429000000001
165967,61.71429000000001
166000,61.71429000000001
166033,61.71429000000001
166067,61.71429000000001
166100,61.01695
166133,61.01695
166167,61.01695
166200,61.01695
166233,61.01695
166267,61.01695
166300,61.01695
166333,61.01695
166367,61.01695
166400,61.01695
166433,61.01695
166467,61.01695
166500,61.01695
166533,61.01695
166567,61.01695
166600,61.01695
166633,61.01695
166667,61.01695
166700,61.01695
166733,61.01695
166767,61.01695
166800,61.01695
166833,61.01695
166867,61.01695
166900,61.01695
166933,61.01695
166967,61.01695
167000,61.01695
167033,58.82353000000001
167067,59.34066
167100,59.34066
167133,59.34066
167167,59.34066
167200,59.34066
167233,59.34066
167267,59.34066
167300,59.34066
167333,59.34066
167367,59.34066
167400,59.34066
167433,59.34066
167467,59.34066
167500,59.34066
167533,59.34066
167567,59.34066
167600,59.34066
167633,59.34066
167667,59.34066
167700,59.34066
167733,59.34066
167767,59.34066
167800,59.34066
167833,58.82353000000001
167867,58.82353000000001
167900,58.82353000000001
167933,58.82353000000001
167967,58.82353000000001
168000,58.82353000000001
168033,59.34066
168067,59.34066
168100,59.34066
168133,59.34066
168167,59.34066
168200,59.34066
168233,59.34066
168267,59.34066
168300,59.34066
168333,59.34066
168367,59.34066
168400,59.34066
168433,59.34066
168467,59.34066
168500,59.34066
168533,59.34066
168567,59.34066
168600,59.34066
168633,59.34066
168667,59.34066
168700,59.34066
168733,59.34066
168767,59.34066
168800,60.40268
168833,60.40268
168867,60.40268
168900,61.71429000000001
168933,61.71429000000001
168967,61.71429000000001
169000,61.71429000000001
169033,61.71429000000001
169067,61.71429000000001
169100,61.71429000000001
169133,61.71429000000001
169167,61.71429000000001
169200,61.71429000000001
169233,61.71429000000001
169267,61.71429000000001
169300,61.71429000000001
169333,61.71429000000001
169367,61.71429000000001
169400,61.71429000000001
169433,61.71429000000001
169467,61.71429000000001
169500,61.71429000000001
169533,61.71429000000001
169567,61.71429000000001
169600,61.71429000000001
169633,61.71429000000001
169667,63.63636
169700,63.63636
169733,63.63636
169767,63.63636
169800,63.63636
169833,63.63636
169867,63.63636
169900,64.28571
169933,64.28571
169967,64.28571
170000,64.28571
170033,64.28571
170067,64.28571
170100,64.28571
170133,64.28571
170167,64.28571
170200,64.67066
170233,64.67066
170267,64.67066
170300,64.67066
170333,64.67066
170367,66.66666
170400,66.66666
170433,66.66666
170467,66.66666
170500,66.66666
170533,66.66666
170567,66.66666
170600,66.66666
170633,66.66666
170667,66.66666
170700,66.66666
170733,66.66666
170767,66.66666
170800,66.66666
170833,66.66666
170867,66.66666
170900,68.35443000000001
170933,68.35443000000001
170967,68.35443000000001
171000,68.35443000000001
171033,68.35443000000001
171067,68.35443000000001
171100,68.35443000000001
171133,68.35443000000001
171167,68.35443000000001
171200,68.35443000000001
171233,68.35443000000001
171267,68.47825999999999
171300,68.47825999999999
171333,68.47825999999999
171367,68.47825999999999
171400,68.47825999999999
171433,68.47825999999999
171467,68.47825999999999
171500,68.47825999999999
171533,68.47825999999999
171567,68.47825999999999
171600,68.47825999999999
171633,68.47825999999999
171667,68.47825999999999
171700,68.47825999999999
171733,68.47825999999999
171767,68.47825999999999
171800,68.47825999999999
171833,68.47825999999999
171867,68.47825999999999
171900,68.47825999999999
171933,70.12987
171967,70.12987
172000,70.12987
172033,70.12987
172067,70.12987
172100,70.0
172133,70.0
172167,70.0
172200,70.0
172233,70.0
172267,70.0
172300,70.0
172333,70.0
172367,70.0
172400,70.0
172433,70.0
172467,70.0
172500,70.39106
172533,70.39106
172567,70.39106
172600,70.39106
172633,70.39106
172667,70.39106
172700,70.39106
172733,70.39106
172767,70.39106
172800,70.39106
172833,70.39106
172867,70.39106
172900,70.39106
172933,72.0
172967,71.18644
173000,71.18644
173033,71.18644
173067,71.18644
173100,71.18644
173133,71.18644
173167,71.18644
173200,71.18644
173233,71.18644
173267,71.18644
173300,71.18644
173333,71.18644
173367,71.18644
173400,71.18644
173433,71.18644
173467,71.18644
173500,71.18644
173533,71.18644
173567,71.18644
173600,71.18644
173633,71.18644
173667,71.18644
173700,71.18644
173733,71.18644
173767,71.18644
173800,71.18644
173833,71.18644
173867,71.18644
173900,71.59091
173933,71.59091
173967,71.59091
174000,71.59091
174033,71.59091
174067,71.59091
174100,71.59091
174133,71.59091
174167,71.59091
174200,71.59091
174233,71.59091
174267,71.59091
174300,71.59091
174333,71.59091
174367,71.59091
174400,71.59091
174433,71.59091
174467,71.59091
174500,71.59091
174533,71.59091
174567,71.59091
174600,71.59091
174633,71.59091
174667,71.59091
174700,71.59091
174733,71.59091
174767,71.59091
174800,71.59091
174833,71.59091
174867,72.0
174900,72.0
174933,69.61326
174967,69.61326
175000,69.61326
175033,69.61326
175067,69.61326
175100,69.61326
175133,69.61326
175167,69.61326
175200,69.61326
175233,69.61326
175267,69.61326
175300,69.61326
175333,69.61326
175367,69.61326
175400,69.61326
175433,69.61326
175467,69.61326
175500,69.61326
175533,69.61326
175567,69.61326
175600,69.61326
175633,69.61326
175667,69.61326
175700,69.61326
175733,67.92453
175767,67.92453
175800,67.92453
175833,67.92453
175867,67.92453
175900,67.92453
175933,67.92453
175967,66.31579
176000,66.31579
176033,66.31579
176067,66.31579
176100,66.31579
176133,66.31579
176167,66.31579
176200,66.31579
176233,66.31579
176267,66.31579
176300,66.31579
176333,66.31579
176367,66.31579
176400,66.31579
176433,66.31579
176467,64.28571
176500,64.28571
176533,64.28571
176567,64.28571
176600,64.28571
176633,64.28571
176667,64.28571
176700,64.28571
176733,64.28571
176767,64.28571
176800,64.28571
176833,64.28571
176867,64.28571
176900,64.28571
176933,63.95939
176967,63.95939
177000,63.95939
177033,63.95939
177067,63.95939
177100,63.95939
177133,63.95939
177167,63.95939
177200,63.15789
177233,63.15789
177267,63.15789
177300,63.15789
177333,63.15789
177367,63.15789
177400,63.15789
177433,63.15789
177467,63.15789
177500,63.15789
177533,63.15789
177566,63.15789
177600,63.15789
177633,63.15789
177666,63.15789
177700,63.15789
177733,63.15789
177766,63.15789
177800,63.15789
177833,63.15789
177866,63.15789
177900,63.15789
177933,63.15789
177966,63.15789
178000,63.15789
178033,63.15789
178066,63.15789
178100,63.15789
178133,63.15789
178166,63.15789
178200,63.15789
178233,63.15789
178266,63.15789
178300,63.15789
178333,63.15789
178366,63.15789
178400,63.15789
178433,63.15789
178466,63.15789
178500,63.15789
178533,63.15789
178566,63.15789
178600,63.15789
178633,63.15789
178666,63.15789
178700,63.15789
178733,63.15789
178766,63.15789
178800,63.15789
178833,63.15789
178866,63.15789
178900,63.15789
178933,63.15789
178966,63.15789
179000,63.15789
179033,63.15789
179066,63.15789
179100,63.15789
179133,63.15789
179166,63.15789
179200,63.15789
179233,63.15789
179266,63.15789
179300,63.15789
179333,63.15789
179366,63.15789
179400,63.15789
179433,63.15789
179466,63.15789
179500,63.15789
179533,63.15789
179566,63.15789
179600,63.15789
179633,63.15789
179666,63.15789
179700,63.15789
179733,63.15789
179766,63.15789
179800,63.15789
179833,63.15789
179866,63.15789
179900,63.15789
179933,63.15789
179966,63.15789
180000,63.15789
180033,63.15789
180066,63.15789
180100,63.15789
180133,63.15789
180166,63.15789
180200,63.15789
180233,63.15789
180266,63.15789
180300,63.15789
180333,63.15789
180366,63.15789
180400,63.15789
180433,63.15789
180466,63.15789
180500,63.15789
180533,63.15789
180566,63.15789
180600,63.15789
180633,63.15789
180666,63.15789
180700,63.15789
180733,63.15789
180766,63.15789
180800,63.15789
180833,63.15789
180866,63.15789
180900,63.15789
180933,63.15789
180966,63.15789
181000,63.15789
181033,63.15789
181066,63.15789
181100,63.15789
181133,63.15789
181166,63.15789
181200,63.15789
181233,63.15789
181266,63.15789
181300,63.15789
181333,63.15789
181366,63.15789
181400,63.15789
181433,63.15789
181466,63.15789
181500,63.15789
181533,63.15789
181566,63.15789
181600,63.15789
181633,63.15789
181666,63.15789
181700,63.15789
181733,63.15789
181766,63.15789
181800,63.15789
181833,63.15789
181866,63.15789
181900,63.15789
181933,63.15789
181966,63.15789
182000,63.15789
182033,63.15789
182066,63.15789
182100,63.15789
182133,63.15789
182166,63.15789
182200,63.15789
182233,63.15789
182266,63.15789
182300,63.15789
182333,63.15789
182366,63.15789
182400,63.15789
182433,63.15789
182466,63.15789
182500,63.15789
182533,63.15789
182566,63.15789
182600,63.15789
182633,63.15789
182666,63.15789
182700,63.15789
182733,63.15789
182766,63.15789
182800,63.15789
182833,63.15789
182866,63.15789
182900,63.15789
182933,63.15789
182966,63.15789
183000,63.15789
183033,63.15789
183066,63.15789
183100,63.15789
183133,63.15789
183166,63.15789
183200,63.15789
183233,63.15789
183266,63.15789
183300,63.15789
183333,63.15789
183366,63.15789
183400,63.15789
183433,63.15789
183466,63.15789
183500,63.15789
183533,63.15789
183566,63.15789
183600,63.15789
183633,63.15789
183666,63.15789
183700,63.15789
183733,63.15789
183766,63.15789
183800,63.15789
183833,63.15789
183866,63.15789
183900,63.15789
183933,63.15789
183966,63.15789
184000,63.15789
184033,63.15789
184066,63.15789
184100,63.15789
184133,63.15789
184166,63.15789
184200,63.15789
184233,63.15789
184266,63.15789
184300,63.15789
184333,63.15789
184366,63.15789
