B,G,R,Time[ms]
118.95065999657145,102.08736577991804,64.3789019277822,0.0
119.18699643118737,101.97695076908691,64.75141427836739,33.333333333333336
119.02596837821886,101.89555182803714,64.77934644177306,66.66666666666667
118.80275215108874,102.0246171527972,64.49824496008449,100.0
118.89041095890413,102.01042152020624,64.64249992234336,133.33333333333334
118.86900081133372,101.98208824814327,64.38992385945204,166.66666666666666
118.99940980958591,102.03179262572607,64.74669959307924,200.0
119.04690884722677,102.20792619259122,64.5007558402294,233.33333333333331
119.04703352190378,102.21085604750105,64.48051178954914,266.6666666666667
119.10665362035223,102.08237815674215,64.78711210511602,300.0
119.13304346470929,102.2841803419203,64.56236071500928,333.3333333333333
119.40310439945769,102.2118690292518,64.94780806333472,366.6666666666666
119.0634282419312,102.36250720775476,64.59889039537457,400.0
119.14791091994327,102.37645518724578,64.74309224367666,433.33333333333337
119.16271603783876,102.36816432122431,64.74801689341874,466.66666666666674
119.0454127511026,102.44030420621193,64.60428257515545,500.0
119.22129755170107,102.39189926286095,64.83369956519707,533.3333333333334
119.1096513784344,102.49522340143689,64.64760702541804,566.6666666666666
119.10503836237692,102.29880719411051,64.91731121672413,600.0
118.71073446327685,102.25600185744136,64.60321956504914,633.3333333333333
118.69310424889713,102.27527281170187,64.59484560018575,666.6666666666666
118.91822422640335,102.14857720416731,64.74227958326854,700.0
118.77893018193129,102.12463069507076,64.62873581091588,733.3333333333333
118.82745917498646,101.99613033046977,64.79106880272424,766.6666666666667
118.70593997823043,101.97423417819937,64.52669880267455,800.0
118.92598351733791,101.85408179132328,64.80887886798321,833.3333333333335
118.95134504742651,101.83245218473024,64.83991603172136,866.6666666666667
118.67033120821024,101.82138081169336,64.56014616700358,900.0
118.8353679371292,101.88407417761627,64.75146771037181,933.3333333333336
118.99841876193756,102.03882643955288,64.58310110530107,966.6666666666664
118.71780438501013,101.8086767221272,64.60157051780439,1000.0
118.6286891618722,101.83994713108382,64.53063287202613,1033.3333333333335
118.62564142435079,101.83649510185042,64.52921785103406,1066.6666666666667
118.85381744674237,101.82803607526043,64.78563209454208,1100.0
118.72837816824756,101.90438501010729,64.55835795366195,1133.3333333333333
119.19116270361357,101.98906259751608,64.90212507021158,1166.6666666666667
118.88360823781565,102.07756344546951,64.74219550834032,1200.0
119.15490828619072,102.16533420605607,64.80259323328191,1233.3333333333335
119.17219131329188,102.1644147303131,64.80988670188728,1266.6666666666665
119.0721398849876,102.210232674116,64.7021677809466,1300.0
119.41298493909883,102.25049315840565,65.02746031249022,1333.3333333333333
118.89998453927026,102.26723871366728,64.8376159554731,1366.6666666666667
118.84813868895596,102.09313520625338,64.84525965482548,1400.0
118.90333302270679,102.28566769173422,64.80739601776784,1433.333333333333
118.91530767558164,102.28406796508557,64.79464479855868,1466.6666666666665
118.7871062611253,102.0745453138302,64.78619301911617,1500.0
118.67519541831129,102.04781363671543,64.67550499187371,1533.3333333333335
118.72944818512501,101.84968655676805,64.78048138688956,1566.666666666667
118.56230941877564,101.80944199365372,64.60664035291386,1600.0
118.80693515782929,101.63840771264192,64.80247239931582,1633.333333333333
119.0157585970168,101.73954627722652,64.88358921550272,1666.666666666667
118.7814703863197,101.78186045060228,64.59294451725644,1700.0
119.00116882509701,101.76070254180496,64.77338819019123,1733.3333333333335
118.70091324200916,101.64425496225887,64.59584381697884,1766.6666666666665
118.71169628532644,101.34442490435642,65.03188633839318,1800.0
118.26970208845208,101.31015049140049,64.52897727272727,1833.333333333333
118.43338983050847,101.38699537750385,64.54395993836671,1866.666666666667
118.57554699537752,101.3606317411402,64.70673343605547,1900.0
118.924728513807,101.66261247285138,64.62475954080051,1933.333333333333
118.86973805855162,101.497719568567,64.78083204930662,1966.6666666666665
119.04697486813528,101.73110456096805,64.65325783431585,2000.0
118.82819058161523,101.48471011484708,64.87117752871178,2033.333333333333
118.85548022077705,101.49490337161569,64.88318496994296,2066.666666666667
119.00230135282229,101.75905768931736,64.47569584823512,2100.0
119.03148363129787,101.65515053014471,64.67206872533086,2133.333333333333
118.7926785852488,101.64400588189768,64.48072130640043,2166.6666666666665
119.10890538033395,101.7716141001855,64.87820037105752,2200.0
118.94935234367719,101.78979902463269,64.52691578914671,2233.333333333333
118.94612182772651,101.78734507501629,64.50392942565153,2266.6666666666665
119.05183809302687,101.68197507932823,64.90883058586796,2300.0
118.91344391637934,101.85641288478857,64.47466840617525,2333.333333333333
118.87771844284498,101.69756210819595,64.75571550189613,2366.6666666666665
118.65565485362093,101.77986132511556,64.60081664098612,2400.0
118.94554730983305,101.70765306122448,64.84650587507731,2433.333333333333
118.92943722943724,101.70681818181818,64.85185528756958,2466.666666666667
118.69278622401487,101.59939497362707,64.4307942910332,2500.0
118.89945702761402,101.43212845175304,64.70023270245113,2533.333333333333
118.6585789636984,101.37825007756749,64.34807632640397,2566.666666666667
119.00559477613103,101.30068415229013,64.56600744931195,2600.0
118.8467280689451,101.39294341328095,64.35656957626195,2633.333333333333
118.8369255224648,101.39810182804246,64.34815403556345,2666.6666666666665
119.02663362787727,101.31835678775695,64.63158632942168,2700.0
118.92767310299688,101.37848115074728,64.45740022129755,2733.333333333333
119.36665628891657,101.51572229140724,64.92552926525529,2766.666666666666
119.11500622665005,101.49140722291406,64.63440224159402,2800.0
119.2603785293205,101.45398696866272,65.01385355259075,2833.333333333333
119.24889854173132,101.46363636363635,65.0111542041576,2866.666666666666
118.79599567099571,101.44525355596785,64.6194032158318,2900.0
118.87282718055876,101.3108582927018,64.7963625106416,2933.333333333333
118.86195756841549,101.44318640698287,64.52491224800423,2966.666666666667
118.75773497688749,101.3542218798151,64.80209553158707,3000.0
118.5797380585516,101.39785824345144,64.63460708782742,3033.333333333333
118.56779661016948,101.40298921417565,64.62707241910631,3066.666666666667
118.84406779661016,101.3798467610866,64.79780202770684,3100.0
118.68138688955963,101.44530609085986,64.6226143487346,3133.333333333333
118.70652844625448,101.31233802295445,64.85000925583118,3166.666666666666
118.75189226840028,101.43547713025309,64.66019657921214,3200.0
118.99571240616051,101.23552356628744,64.99396331553285,3233.333333333333
118.99181177927404,101.2365296803653,65.02948688182029,3266.666666666666
118.60416376441452,101.13478832907671,64.54560792508319,3300.0
118.5834104652598,100.9343915833642,64.67484265087005,3333.333333333333
118.25008071583414,100.894623556724,64.48198883815323,3366.666666666666
118.49009977450346,100.7723102585488,64.61313440212524,3400.0
118.22546623003244,100.82494657380501,64.45886567347755,3433.333333333333
118.21794812662392,100.8217948126624,64.44731946558431,3466.666666666667
118.4490007104686,100.72413739844929,64.59911036975258,3500.0
118.1706717094845,100.73952615961748,64.32174100210631,3533.333333333333
118.35096782128744,100.70611749150562,64.61516227726274,3566.666666666667
118.35031778353695,100.88138652350979,64.36788843638159,3600.0
118.43242825811636,100.74376795477714,64.65041855867544,3633.333333333334
118.46076977728356,100.73080962530504,64.66706823587558,3666.666666666666
118.43469501611703,100.90295685593851,64.38282606000496,3700.0
118.55271128330489,100.8124164014575,64.86799501867995,3733.333333333334
118.32955386893744,100.9298562260891,64.46516722201655,3766.666666666666
118.51943724546464,100.93548685671972,64.72329692706407,3800.0
118.3178298161175,100.94849129951872,64.541311859805,3833.333333333334
118.3012464519314,100.94208934962359,64.51477847710724,3866.666666666666
118.55030374411108,100.85810810810813,64.68168856930325,3900.0
117.93053659720327,100.98252798252798,64.71897655230988,3933.333333333333
118.5836728347069,100.84241953039965,64.60309438656508,3966.666666666667
118.27678972215773,100.81708846064545,64.36037458401053,4000.0
118.49382677655107,100.64080236355156,64.47341004509408,4033.333333333333
118.2261508083426,100.52745896581513,64.51550351721585,4066.666666666666
117.88703258052574,100.52725842280636,64.15892262125139,4100.0
117.7437695063266,100.2802146272466,64.18629214519626,4133.333333333334
117.79212945822536,100.3459058373442,64.04836171788227,4166.666666666667
118.04091077378747,100.1274836480316,64.4356719733432,4200.0
117.74708441318027,100.1389763050722,64.10806182895224,4233.333333333333
117.75021596939405,100.14108971985684,64.11185671973344,4266.666666666667
117.95174626681477,100.06849315068493,64.34943847957547,4300.0
117.88316699727251,100.16967827919665,64.080399206546,4333.333333333333
118.07452578725515,100.1734905777337,64.32153483758991,4366.666666666666
117.90328229605751,100.25987168361023,64.04988532110092,4400.0
118.12354326803869,100.23710637242748,64.43015435159931,4433.333333333334
118.1347322092735,100.24590875278948,64.4403824696256,4466.666666666667
118.0824858757062,100.41089698939709,64.24863400665582,4500.0
118.07730161668518,100.31061026780205,64.42052326298902,4533.333333333333
117.72711898282677,100.31463800870192,64.12173485232846,4566.666666666666
117.80537190082643,100.30641261095806,64.44643403734312,4600.0
117.73165444398322,100.40717679073843,64.17940439401627,4633.333333333334
117.71552665159972,100.41181987300706,64.18458558184585,4666.666666666667
118.1316206202051,100.41035930077028,64.63461094967944,4700.0
117.75450086865612,100.55178881662901,64.26837630490597,4733.333333333333
117.84511784511784,100.49645619052014,64.39598419507095,4766.666666666667
117.57307468358307,100.4800649688946,64.21815145107415,4800.0
117.80647313980649,100.50856917523585,64.71551854885188,4833.333333333333
117.81166014499348,100.49582916249581,64.74460824460824,4866.666666666666
117.53930938684302,100.59600489196902,64.58351829203848,4900.0
117.90064251073427,100.18904642757856,64.4012603095172,4933.333333333334
117.59437602816598,100.22492812447149,64.17024122503575,4966.666666666667
118.40080489126228,100.42083430075071,64.70666357093104,5000.0
118.11147743982664,100.44604906740965,64.27802801640739,5033.333333333333
118.10070427985451,100.4551505301447,64.26544385109511,5066.666666666666
118.47668137141086,100.41883755127311,64.718566674406,5100.0
118.28120114542216,100.56108660320407,64.45685318473802,5133.333333333334
118.44739571240616,100.54005107963779,64.65245724015169,5166.666666666667
118.36794365761163,100.61021592755978,64.5342001393081,5200.0
118.50920207414286,100.59972138379379,64.74573175450816,5233.333333333333
118.68940452893486,100.68928027832138,64.75845680738047,5266.666666666667
118.55412531985272,100.71227298258756,64.37873681582724,5300.0
118.50523405709316,100.62771409933836,64.6829590283602,5333.333333333333
118.1744447024224,100.62026158966023,64.42532311740578,5366.666666666666
118.470971950424,100.64451899481251,64.63602335911533,5400.0
118.23672848134687,100.6667287919734,64.27313391109868,5433.333333333334
118.23831267666884,100.67197838039326,64.27667505358308,5466.666666666667
118.42172211350294,100.69746528748486,64.5785729817041,5500.0
118.00970513118179,100.68144880427212,64.32113613497407,5533.333333333332
118.3162644053055,100.65278166060943,64.49046376541484,5566.666666666666
118.05314881044941,100.57295910433837,64.2192816047271,5600.0
118.47693939961306,100.49077888035947,64.62698932784123,5633.333333333334
118.4749734756288,100.48612931411094,64.67150346377083,5666.666666666668
117.87429637692429,100.3677499611258,64.11175555901104,5700.0
118.03128595863785,100.34989892707199,64.32091432125642,5733.333333333332
117.93517337894572,100.40971855076971,64.16468667392319,5766.666666666668
118.20376302285804,100.36292955994402,64.49267610013995,5800.0
117.77592672948177,100.2914548723035,64.14474336722043,5833.333333333332
117.9743585756492,100.39572383766134,64.18696936712797,5866.666666666666
117.84385135761283,100.1655391838878,64.44674574491088,5900.0
117.79562360525664,100.29587155963304,64.14802876270767,5933.333333333334
117.78114478114479,100.2094028974763,64.3143051308189,5966.666666666668
117.5153052595975,100.26437894931044,64.11584644004735,6000.0
117.75051740648071,100.24799987644023,64.37006147097891,6033.333333333332
117.75128965495941,100.25840978593271,64.37373737373738,6066.666666666666
117.584468538597,100.29835047724957,64.0254996447657,6100.0
117.82815983272604,100.39250957059177,64.44416770444168,6133.333333333334
117.7139176848081,100.54185178329014,64.25709613723312,6166.666666666668
117.61697646172532,100.47359439140259,64.37459834263487,6200.0
117.34157702797951,100.4326867089577,64.19220986178786,6233.333333333332
117.32849131194263,100.4468450246698,64.19553492078086,6266.666666666668
117.51650271214493,100.40156599552573,64.44339738285679,6300.0
117.4974862783082,100.52695908860292,64.13417277800839,6333.333333333332
117.90431013204987,100.53836542021477,64.48795199308898,6366.666666666666
117.69043872639764,100.57458657287424,64.16453782549674,6400.0
117.66795812001291,100.44750395891948,64.32151038543732,6433.333333333334
117.67890472456683,100.43136079209135,64.34057469673908,6466.666666666668
117.5556932966024,100.54219467401285,64.24499540863178,6500.0
117.76989672397413,100.46080414329931,64.64588887867366,6533.333333333332
117.68542577427498,100.54400898959423,64.31204975063112,6566.666666666666
118.03988362785542,100.6190351579336,64.66912443815035,6600.0
117.79043778092479,100.69533895696077,64.27559879317775,6633.333333333334
117.81649836832706,100.67078689735851,64.30156702173511,6666.666666666668
118.27601705124643,100.89483520217466,64.66350044790413,6700.0
118.2443076638282,101.08189867950142,64.68905035172159,6733.333333333332
118.95196160656045,101.3552480352872,65.19633150063679,6766.666666666668
118.80678541929652,101.48637149936884,64.78799071173657,6800.0
119.3799336961281,101.64305373115656,65.2437136423344,6833.333333333332
119.19483535150465,101.54158679695169,65.18568734707871,6866.666666666666
118.93375099350132,101.64972649492731,64.88469150809607,6900.0
119.55864676991638,101.87354265718905,65.30028715341524,6933.333333333334
118.98701824925585,101.77787647856377,64.89971480667633,6966.666666666668
119.20365093778378,101.731189529386,65.00566740770893,7000.0
118.77551020408166,101.67143478395924,64.86076165626068,7033.333333333332
118.77762246451091,101.64767185412977,64.8771782685677,7066.666666666666
118.93156876402756,101.45629595232569,65.36870211283957,7100.0
118.50810138392164,101.26823200124399,64.72271808427928,7133.333333333334
118.71757113979164,101.3016638158918,64.95845125174934,7166.666666666668
118.50482040118179,101.33075726947598,64.72083657285026,7200.0
118.4555851723283,101.21028080833128,64.87768100669477,7233.333333333332
118.46491445574017,101.20876208777584,64.87231899330524,7266.666666666668
118.29182680386809,101.199758244483,64.62447309695017,7300.0
118.41622241507565,101.21080771138115,64.74846578229607,7333.333333333332
118.23684292090256,101.2222291098438,64.5487385321101,7366.666666666666
118.4910736424498,101.195976940243,64.88043949913218,7400.0
118.20623605256634,101.25178217208034,64.55453446565832,7433.333333333334
118.21716154227623,101.25086784031738,64.56225204562361,7466.666666666668
118.25039384672415,101.14593951749916,64.88890433385846,7500.0
118.03001974577316,101.33128162408985,64.62052634826608,7533.333333333332
118.19259842033816,101.3783320992225,64.88363877576207,7566.666666666666
117.73123933397905,101.3327644788832,64.59245422259121,7600.0
117.83821471949328,101.28931629844871,64.71406607936288,7633.333333333334
117.847101148471,101.29352889626864,64.71337422935596,7666.666666666668
117.74097241528436,101.25309671639948,64.48494115466593,7700.0
117.93859080097613,101.14922929601828,64.78599450159085,7733.333333333332
117.82066827101076,101.21549117610762,64.55311304455141,7766.666666666668
117.97306511056507,101.17561425061425,64.86833538083538,7800.0
117.74612797729236,101.09917623102557,64.4592280636801,7833.333333333332
117.7256880167839,101.10915710230779,64.39480747871157,7866.666666666666
117.5915059687787,101.03815426997244,64.66325374961738,7900.0
117.51080501989591,101.03284358738905,64.52514539332721,7933.333333333334
117.63018059381695,101.01129476584022,64.73601163146618,7966.666666666668
117.68897420147421,101.15936732186731,64.55632678132677,8000.0
117.73735843281298,101.06958983777166,64.83927150290786,8033.333333333332
117.76043771043771,101.08530762167126,64.86946740128559,8066.666666666666
117.52363820856972,101.06591024399245,64.4320833909875,8100.0
117.62866103961994,101.0866196208662,64.62271112956044,8133.333333333332
117.54454745322329,101.11160309333826,64.5247451685808,8166.666666666666
117.76415601986379,101.11363252002522,64.77398028996204,8200.0
117.63121319742324,101.24230124686744,64.51871838629829,8233.333333333332
117.63925403194807,101.22724966560585,64.53719846870531,8266.666666666668
118.03421770394249,101.35922390280187,64.63256260848004,8300.0
117.55979890226463,101.32290945989577,64.32217148655504,8333.333333333334
117.70935656256758,101.19534797516451,64.50179161647053,8366.666666666668
117.40014097024302,101.21353927247095,64.40991695013943,8400.0
117.63464169856864,101.2274649078302,64.52657472748797,8433.333333333334
117.64231354642315,101.2198238088649,64.55395661331734,8466.666666666666
117.54244115431332,101.22950970896177,64.42717894316068,8500.0
117.7086850237535,101.07833279522778,64.62786156850082,8533.333333333334
117.30901596641228,101.00369280745304,64.4716527228709,8566.666666666666
117.427568876222,100.97376727651621,64.6523244767246,8600.0
117.4898298048983,101.08680411420136,64.45562166566732,8633.333333333332
117.47999016035546,101.08016235413496,64.45697461679197,8666.666666666666
117.63800870193563,101.03594545147057,64.62936826407146,8700.0
117.56164383561644,101.1044539766001,64.4829420537183,8733.333333333332
117.63607152191628,101.08234552526793,64.61590025060346,8766.666666666668
117.55317251664283,101.15714219823809,64.43910951216887,8800.0
117.67000292114449,101.17546853619913,64.54780683547807,8833.333333333334
117.67864335900866,101.1782974340052,64.56959242347371,8866.666666666668
117.59039404701504,101.23710468459328,64.44705810002614,8900.0
117.69260335470379,101.2494964869394,64.59440677705518,8933.333333333334
117.78352153523387,101.4315994076268,64.54135813896089,8966.666666666666
117.97604661531601,101.38516058607384,64.96825177190476,9000.0
117.6860230924158,101.47670002921144,64.64211367864336,9033.333333333334
117.6690035822456,101.48338791261166,64.62018972064634,9066.666666666666
117.59477184272623,101.36862186264595,64.68916061413992,9100.0
117.67229874502605,101.57274257728805,64.73305785123968,9133.333333333332
118.04524558805382,101.66837899543378,64.87546279155869,9166.666666666666
117.90974021967173,101.76797173886216,64.61964704430459,9200.0
117.88215488215488,101.72733422505112,64.81452270036745,9233.333333333332
117.69873739695382,101.62183200024515,64.7682418559039,9266.666666666668
117.78169826115032,101.77121288993436,64.58610457697216,9300.0
118.01431568554855,101.8431136616068,64.74736208811551,9333.333333333334
117.8230439343453,101.84465630013577,64.6252776749352,9366.666666666668
117.85907997038132,101.71669443416019,64.6866901147723,9400.0
117.75731210662718,101.70942860668887,64.59362273232136,9433.333333333334
117.75033938047638,101.7013760335678,64.58516907318277,9466.666666666666
117.91948403363928,101.38340789938965,64.97329458973293,9500.0
117.57369740018144,101.35238227019049,64.60078717156343,9533.333333333334
117.73749673293051,101.30579770305798,64.72959426840706,9566.666666666666
117.59918822932522,101.36814107590365,64.61376320280431,9600.0
117.73282290177269,101.31153237089308,64.78637209230817,9633.333333333332
117.74340051965623,101.30762726196517,64.79576587795766,9666.666666666666
117.57370676461586,101.41554943373129,64.65893786348333,9700.0
117.67935058346018,101.32770628661041,64.64312839198683,9733.333333333332
117.59745091708562,101.3470319634703,64.52116292298939,9766.666666666668
117.77115139215596,101.31520686315208,64.66532908998663,9800.0
117.46353161104471,101.31886856057123,64.47295516533357,9833.333333333334
117.64402010977354,101.38988054056549,64.48269606260475,9866.666666666668
117.774134034408,101.37648939932043,64.62238826622388,9900.0
117.30463798659152,101.2676348864556,64.40767550892626,9933.333333333334
117.79867304097333,101.33080506267046,64.79930127792589,9966.666666666666
117.3877307921382,101.32891983934273,64.61798078832028,10000.0
117.62121908614508,101.40115227850815,64.75285771199167,10033.333333333334
117.6261683675033,101.39329165517452,64.78532683644386,10066.666666666666
117.71592638715929,101.5780791168919,64.72794920283505,10100.0
117.58212324588163,101.53901769371569,64.84338010982306,10133.333333333332
117.88769591509322,101.7276008885598,64.65717943971369,10166.666666666666
117.59847997303177,101.48800220649076,64.69369617848058,10200.0
117.51132358799913,101.5074928748736,64.5296803652968,10233.333333333332
117.66196208661962,101.5876112725428,64.48650892486509,10266.666666666668
117.93824817968657,101.56024003455515,64.71006108848574,10300.0
117.78284277428114,101.52090275206714,64.53267308404295,10333.333333333334
117.86313710971243,101.38528939898805,64.64709058373442,10366.666666666668
117.7491052696532,101.36779587806986,64.56368011847464,10400.0
117.76513998431808,101.15000845594452,64.77811601555894,10433.333333333334
117.7988253924327,101.13780114693355,64.80777331918884,10466.666666666666
117.51232261734543,101.0841135863967,64.48801562043572,10500.0
117.76983833148218,101.15323028507959,64.63717141799334,10533.333333333334
117.68557941503148,101.17363939281748,64.5288164877206,10566.666666666666
117.79336356904852,101.13237381216835,64.67160310995928,10600.0
117.8565436111756,101.25312282331087,64.57993963315532,10633.333333333332
117.67095520177713,101.17255954584722,64.53412316426015,10666.666666666666
117.83293224731578,101.14713686289028,64.68823275330125,10700.0
117.76121498210541,101.17146427249169,64.5906608663458,10733.333333333332
118.00820369940406,101.2470551814875,64.7346490209736,10766.666666666668
117.93074839408716,101.26377215385807,64.58079096045198,10800.0
117.57675237220691,101.0661310070401,64.6752678298133,10833.333333333334
117.57684419957148,101.06769207223749,64.68411386593205,10866.666666666668
117.4767982858892,101.14511784511784,64.49900520355067,10900.0
117.76467875098012,101.17196316283078,64.74130959519087,10933.333333333334
117.51582799071384,101.2775240994419,64.5067724428455,10966.666666666666
117.69494027028273,101.30545946527685,64.70685546484633,11000.0
117.4200300327909,101.30605865587938,64.57476019735834,11033.333333333336
117.37956237933254,101.31214182832278,64.52796420581656,11066.666666666664
117.42936241610737,101.29305979255643,64.66555826723612,11100.0
117.33107077486272,101.31984441732763,64.57467968273339,11133.333333333332
117.30315664085764,101.13623799270016,64.64586673997037,11166.666666666664
117.14819093949528,101.10614168440254,64.50177865612648,11200.0
117.45167172320801,100.98941190892096,64.57014801875518,11233.333333333332
117.33139109212937,100.993197071385,64.59786455155583,11266.666666666668
117.39577594123051,101.09703091521273,64.52381389654117,11300.0
117.65984820436876,100.96795939775393,64.51136924595829,11333.333333333336
117.21058196193803,100.86324354141769,64.39879255922283,11366.666666666668
117.41878888173822,100.6903098280776,64.64061781741289,11400.0
117.13105552165956,100.656802928615,64.38418242830994,11433.333333333336
117.31054484236307,100.7466636057545,64.45284664830119,11466.666666666664
117.39959718955153,100.61657672616577,64.4702735113694,11500.0
117.14031421598536,100.62274252593045,64.38521964612569,11533.333333333336
117.38598102234468,100.66271808999079,64.52450260177532,11566.666666666664
117.47742628992629,100.82592137592137,64.40955159705159,11600.0
117.38864401591677,100.68362411998777,64.47278849097032,11633.333333333332
117.4923050904786,100.67441538674416,64.4532847500884,11666.666666666664
117.16203477730323,100.64298352654059,64.36732763880416,11700.0
117.50328244392172,100.70865427486432,64.4923973371462,11733.333333333332
117.18274862721172,100.71458206223306,64.35901464307504,11766.666666666668
117.71691040355421,100.88081574725409,64.53399975317784,11800.0
117.63465691719117,100.95708379612488,64.39519313834383,11833.333333333336
117.6271905467111,100.96245217820558,64.39614957423177,11866.666666666668
117.85158274713068,101.00476675305443,64.76598173515983,11900.0
117.7152708901562,101.03175365732706,64.44850297545253,11933.333333333336
117.7606287794644,101.08910280143158,64.60048747377515,11966.666666666664
117.66853325928669,101.15199617425644,64.49163889917314,12000.0
117.7399419967913,101.1533691225472,64.6117641614217,12033.333333333336
117.73827594718006,101.16379735900284,64.64613414784648,12066.666666666664
117.6567475009256,101.18806306306308,64.48469702579293,12100.0
117.72952918672097,101.10847834135504,64.57268912748366,12133.333333333332
117.592589164507,101.09254288535112,64.43442243613478,12166.666666666664
117.65421757373812,100.95267184993212,64.54618659755646,12200.0
117.71861311044037,100.99411810231408,64.38093026855506,12233.333333333332
117.6986301369863,100.99775559167247,64.36605525888089,12266.666666666668
117.76579212135285,100.84221035523564,64.45686866341615,12300.0
117.67567525733305,100.86353997368624,64.32209581301757,12333.333333333336
117.91262286200758,100.6839718288058,64.62948688182028,12366.666666666668
117.66549028712947,100.66889559631608,64.38866960761551,12400.0
117.76588499342155,100.6015788251683,64.5276836158192,12433.333333333336
117.75579289528677,100.58354616515749,64.52478910301059,12466.666666666664
117.6246884916028,100.65272037767971,64.31178701338905,12500.0
117.68694373500506,100.634827025772,64.4076309883136,12533.333333333336
117.60979800325052,100.65977865490288,64.29118489281015,12566.666666666664
117.69178856125687,100.63970280938007,64.42523024533705,12600.0
117.64448572091943,100.69171116786629,64.28954415292934,12633.333333333332
117.62439439671851,100.69985295255785,64.28073678507856,12666.666666666664
117.74576271186442,100.69931119882362,64.41835771225139,12700.0
117.7046358640972,100.72198746227072,64.31946443773701,12733.333333333332
117.78927327606222,100.77891804039936,64.45516600882284,12766.666666666668
117.73574800712021,100.88649485333951,64.34345638882439,12800.0
117.99907127931273,100.93129014782134,64.6739571240616,12833.333333333336
118.03310889250058,100.94461728968344,64.70316538967572,12866.666666666668
117.75060753811623,101.01094342543146,64.43888243943967,12900.0
117.83521399272502,101.01552511415524,64.53721848154167,12933.333333333336
117.80309573562415,101.04498103861928,64.40905502670071,12966.666666666664
117.85135825400506,101.053525268942,64.54904419162604,13000.0
117.76017336119492,101.11746768825942,64.3285659004721,13033.333333333336
117.76655057658077,101.1136599334417,64.33706369476046,13066.666666666664
117.80150143177772,101.01165544462502,64.40617599257023,13100.0
117.47099839565594,100.89764593360485,64.23468159940762,13133.333333333332
117.81068028790341,100.84541444160669,64.47005649717514,13166.666666666664
117.63425431468151,100.87598483089545,64.35587028867735,13200.0
117.5497192397877,100.66825558435148,64.37978217943972,13233.333333333332
117.75255785155949,100.76254159894744,64.46460800247658,13266.666666666668
117.47639763050722,100.6948660989757,64.28452425027768,13300.0
117.81834223357323,100.71372184815417,64.52141475118025,13333.333333333336
117.6756597786549,100.66889559631608,64.2643139075923,13366.666666666668
117.75822304775171,100.65259654825478,64.3702190232954,13400.0
117.69777880968964,100.72923148363131,64.30071975853262,13433.333333333336
117.71197275752651,100.72225059979877,64.30816500270876,13466.666666666664
117.7761473570157,100.67507158888631,64.429192786936,13500.0
117.73690890797926,100.73467997832985,64.28935840879188,13533.333333333336
117.804225679127,100.71573407630987,64.4370559554214,13566.666666666664
117.73082578747774,100.79919510873768,64.27895673709465,13600.0
117.81667053633622,100.81566442225834,64.4451358254005,13633.333333333332
117.8345329308877,100.8225988700565,64.47134122745918,13666.666666666664
117.76912003714882,100.88739261667057,64.33245104868044,13700.0
117.93660394961904,100.82417975431505,64.37140413621522,13733.333333333332
117.65239895859163,100.79788618894123,64.19738718075874,13766.666666666668
117.91241011653857,100.85082444830152,64.48083002727499,13800.0
117.61255578973473,100.97348437887429,64.2052132407637,13833.333333333336
117.58545127696505,100.99643565583929,64.18647718819736,13866.666666666668
117.75691172824202,100.97359285891396,64.41245660798414,13900.0
117.44704272558157,100.96425441630922,64.34517165567394,13933.333333333336
117.67906948043935,100.91331914105888,64.41675922497839,13966.666666666664
117.37347600817921,100.81370785480377,64.3140845286964,14000.0
117.55655312847094,100.79854683450571,64.43909663087746,14033.333333333336
117.41008256076748,100.684024414618,64.44302999554141,14066.666666666664
117.24374043464952,100.69491888582796,64.32460973370064,14100.0
117.4447519333364,100.64601878757132,64.35822455913781,14133.333333333332
117.31923496763679,100.67270882339376,64.22340605445629,14166.666666666664
117.4134495641345,100.61108804944422,64.33145765109235,14200.0
117.32191012099688,100.64429684977631,64.28122934059007,14233.333333333332
117.33622372891779,100.62112756176684,64.27584828498071,14266.666666666668
117.49906984610182,100.57823286133787,64.51724243961687,14300.0
117.29869470965365,100.594145411497,64.2921451962548,14333.333333333336
117.37341451040079,100.58021616469105,64.4185385052965,14366.666666666668
117.32912073551344,100.61897513952309,64.28027612502498,14400.0
117.41637070860816,100.61357870946912,64.4211675353228,14433.333333333336
117.458235321249,100.59794289931277,64.45714373568255,14466.666666666664
117.34594037790386,100.67988868902113,64.22165336777209,14500.0
117.27135239496185,100.6186601697772,64.34747632619289,14533.333333333336
117.18460972694677,100.67196837363242,64.23886794765714,14566.666666666664
117.4711652291561,100.75041126639299,64.40075027289639,14600.0
117.36966314591885,100.83979828728687,64.23559798902265,14633.333333333332
117.34904601571269,100.86453576864537,64.2198699321987,14666.666666666664
117.64192274466248,100.9848821424164,64.41896519807479,14700.0
117.59323707268913,101.04533814636557,64.32168641243985,14733.333333333332
117.81125817598421,101.0827934098482,64.56625632481797,14766.666666666668
117.38116323047831,101.04830650492752,64.32287871100658,14800.0
117.42954660762881,101.00090709223127,64.40439401626618,14833.333333333336
117.44516704334059,100.98793106099043,64.44292237442923,14866.666666666668
117.55072195483154,101.07256571640134,64.39656608663458,14900.0
117.6052079476737,100.95407565099346,64.45799395285697,14933.333333333336
117.47517894606935,100.94961742564483,64.27756695051215,14966.666666666664
117.56491422929778,100.81529988893006,64.4346538319141,15000.0
117.50026224854992,100.81647229421202,64.26903615944714,15033.333333333336
117.50200543008762,100.80477909416264,64.26720041959769,15066.666666666664
117.58671171171171,100.71911637665063,64.38178760952734,15100.0
117.47035048747378,100.76402258422807,64.24850364062694,15133.333333333332
117.57403122300384,100.76619770455387,64.3832839689004,15166.666666666664
117.4938882063882,100.8487714987715,64.40717137592138,15200.0
117.7357460199926,100.76639824756263,64.6108848574602,15233.333333333332
117.76865049981487,100.75098728865852,64.63851351351353,15266.666666666668
117.36704949033717,100.67163261227188,64.26296450040742,15300.0
117.623827594718,100.75043193878813,64.40799703813403,15333.333333333336
117.50681846229791,100.81517647784771,64.28461680858942,15366.666666666668
117.66324200913242,100.80993150684931,64.49655991608047,15400.0
117.55450141922744,100.8758947303468,64.38137109712453,15433.333333333336
117.54644884610641,100.88212699000371,64.36916882636059,15466.666666666664
117.68141429100334,100.88470319634705,64.52738183388868,15500.0
117.6170399851907,100.96592311489573,64.40233555473282,15533.333333333336
117.6797019622362,100.9943385165988,64.51155436258176,15566.666666666664
117.63177218314205,101.03853511045291,64.35667345427619,15600.0
117.72153831914106,101.06671911637665,64.52409601382205,15633.333333333332
117.74432309021351,101.06759842033816,64.52324756263113,15666.666666666664
117.65546711094656,101.11287486116257,64.4260767616932,15700.0
117.65734975324017,100.96488476853771,64.53692172870255,15733.333333333332
117.13122330689446,100.84263270286759,64.30079316656497,15766.666666666668
117.37912457912458,100.8340067340067,64.4611570247934,15800.0
117.37118521593409,100.79770305797705,64.24605261134941,15833.333333333336
117.3421428900881,100.7886475101087,64.23367618344787,15866.666666666668
117.47254892916992,100.65821072213768,64.33774579893301,15900.0
117.3303814399705,100.7003059514475,64.17416170840829,15933.333333333336
117.37456759374572,100.66262318773735,64.32535399658687,15966.666666666664
117.2869486339806,100.6877142813216,64.18616914963947,16000.0
117.39152560613749,100.60553787494429,64.29169933736144,16033.333333333336
117.23891391621464,100.52434801262604,64.28305905427354,16066.666666666664
117.27793920944609,100.66683578555723,64.15145365373677,16100.000000000002
117.35976200359762,100.62646249404241,64.25789093369002,16133.333333333332
117.29360576849164,100.68483926018172,64.09998001322202,16166.666666666668
117.51298371846322,100.59110127146656,64.40507049182848,16200.0
117.25340159586737,100.65988653659883,64.08944851867227,16233.333333333336
117.23143151453657,100.65719600879422,64.08974063311963,16266.666666666664
117.33657734114357,100.65339852097843,64.24468428578018,16300.0
117.26786894823424,100.70491828482695,64.13618683025076,16333.333333333332
117.36663438033301,100.70424180926464,64.25453930476762,16366.666666666668
117.26587027043648,100.77318081884293,64.11815260673708,16400.0
117.4238888120167,100.7725965899482,64.37624340820689,16433.333333333332
117.42839352428392,100.78223636671127,64.37336838706702,16466.666666666664
117.32132589210217,100.8565871807881,64.20475685315868,16500.0
117.38900419722336,100.86673431422292,64.33162676998293,16533.333333333336
117.3445720523346,100.91242716356872,64.13694017803607,16566.666666666668
117.42745568316343,100.9049705579386,64.25404732254046,16600.0
117.28130621281305,100.99042172101534,64.14202911919807,16633.333333333332
117.59739958207571,101.22492067177464,64.15552975775869,16666.666666666668
117.79079018651808,101.09979103784536,64.37124061605138,16700.0
117.23567486124563,100.918423196962,64.12188859677444,16733.333333333336
117.47922065901518,100.91992163396273,64.22204738985562,16766.666666666664
117.57845368005572,100.99552666202308,64.2004334029874,16800.0
117.65290612181721,100.93000541753734,64.30133890565746,16833.333333333332
117.67793514433869,100.91494466372572,64.33398343781441,16866.666666666668
117.42992189437143,100.77169600793457,64.04675489709894,16900.0
117.4442644699494,100.76692274466248,64.26379118844872,16933.333333333332
117.38712513883749,100.78929100333212,64.086727138097,16966.666666666664
117.35248989130268,100.66253094106978,64.20238918869056,17000.0
117.23170825453931,100.69509401472872,64.13223559798902,17033.333333333336
117.23811939793677,100.69375643804868,64.14003044140031,17066.666666666668
117.522920282668,100.70997086536077,64.13499566079841,17100.0
117.40390904603235,100.81949586572874,64.1215136369246,17133.333333333332
117.45514007157844,100.77332469455757,64.26980747871157,17166.666666666668
117.4236085400469,100.83305565839814,64.11139392817475,17200.0
117.34833879126116,100.75027289639162,64.26078132927448,17233.333333333336
117.36801808034686,100.74178620297344,64.28229017726734,17266.666666666664
117.26760758267609,100.78611072675,64.20146672201467,17300.0
117.30094888276709,100.7808386899296,64.34398530762168,17333.333333333332
117.151910759707,100.77331372008213,64.25256657779413,17366.666666666668
117.2366461340443,100.83129539395054,64.37396953816922,17400.0
117.34086681118643,100.9966483710776,64.21473486770289,17433.333333333332
117.32247897544701,101.00977814676443,64.20893870208938,17466.666666666664
117.41045154743786,101.00639576895284,64.37132358593546,17500.0
117.32032655320327,101.05144289162554,64.29555832295559,17533.333333333336
117.38861983610842,100.97384806973848,64.34011346340114,17566.666666666668
117.33096566886522,100.9721261319435,64.2206847777624,17600.0
117.54351736543518,100.78652583675415,64.49707116830405,17633.333333333332
117.55234229663454,100.78569561674584,64.50880186953246,17666.666666666668
117.48515981735159,100.83939590275207,64.2734326792546,17700.0
117.52448167345429,100.80135443662842,64.40006787609529,17733.333333333336
117.43784709366902,100.84280513390102,64.28325928668394,17766.666666666664
117.52060965074664,100.78404603233368,64.41472294212019,17800.0
117.43621189682834,100.82125447365172,64.25734295939776,17833.333333333332
117.46572257188696,100.79797605825004,64.28270393681353,17866.666666666668
117.35001460572235,100.638377688606,64.30765801085435,17900.0
117.37113022113022,100.77054668304669,64.32824017199017,17933.333333333332
117.55527273849192,100.74483216092806,64.40921572257189,17966.666666666664
117.37850122850122,100.796421990172,64.31506449631449,18000.0
117.36720323478315,100.71897052718971,64.33974447673079,18033.333333333336
117.37819596267086,100.71711021939328,64.35694848023616,18066.666666666668
117.48913982475626,100.82978526471678,64.28689991361225,18100.0
117.7732784154017,100.87364247809454,64.63232753301247,18133.33333333333
117.11300603720389,100.80302473108395,64.17777573473077,18166.666666666668
117.26730716190126,100.78577119916643,64.44635469338972,18200.0
117.17251999632252,100.86396371548528,64.30239649413134,18233.333333333336
117.19219453893535,100.8579724801569,64.29000030645705,18266.666666666664
117.34952958842821,100.934525451258,64.50597591247586,18300.0
117.34172023262931,101.07701254973982,64.42187021732477,18333.33333333333
117.51572036960164,101.0789938963455,64.49099826268777,18366.666666666668
117.36181512090604,101.15052035506581,64.41954392408938,18400.0
117.53478468090341,101.0968282520794,64.45516043232938,18433.33333333333
117.48565962656872,101.15091827364556,64.56738598102235,18466.666666666664
117.36221303948577,101.24928068564432,64.3941995714723,18500.0
117.4716712580349,101.25084175084177,64.52681359044996,18533.333333333336
117.35586164677076,101.29462809917356,64.45745332108969,18566.666666666668
117.63683807774716,101.26724823997552,64.74683195592287,18600.0
117.38454239363331,101.2556932966024,64.39923477196204,18633.33333333333
117.37139577594124,101.25685644322009,64.44254667891032,18666.666666666668
117.44149066421792,101.19891337618613,64.5733547597184,18700.0
117.43751056993068,101.19474808972528,64.43033070430329,18733.333333333336
117.50863275064188,101.06996909736635,64.5000384361115,18766.666666666664
117.37424473040913,101.0423719693126,64.342834740095,18800.0
117.43472779545841,100.9355810771336,64.45214704118814,18833.33333333333
117.4476884522547,100.93178358931783,64.47596205587074,18866.666666666668
117.34697046569192,100.95114001506695,64.2564457358978,18900.0
117.45200867118677,100.83890656950018,64.42577986870225,18933.33333333333
117.33082729886385,100.84794674292392,64.32040342542625,18966.666666666664
117.29915824915821,100.82465564738293,64.43086929905111,19000.0
117.28986977845426,100.75519271866304,64.21353566102425,19033.333333333336
117.27180480605136,100.75857509647464,64.18426271850929,19066.666666666668
117.51917961963623,100.72350598834619,64.50063803945082,19100.0
117.25376492194674,100.83168044077135,64.34028160391797,19133.33333333333
117.42831665206093,100.81644450594223,64.42119828421198,19166.666666666668
117.35807081469184,100.86304444751934,64.26859154713036,19200.0
117.42748643205263,100.85342004520086,64.4915363682487,19233.333333333336
117.45635963900804,100.84576357179097,64.5160739818274,19266.666666666664
117.42924659438421,100.85179007197357,64.21673925802367,19300.0
117.50764525993885,100.866184783616,64.34142649738979,19333.33333333333
117.39498485617209,101.0016604400166,64.36910966591331,19366.666666666668
117.50774103285521,100.99374260104857,64.48401826484019,19400.0
117.43266761988224,101.07285949295084,64.30876497086543,19433.33333333333
117.42516489091831,101.0704610795935,64.31260858201497,19466.666666666664
117.47307166028628,101.06649447288716,64.4727795458389,19500.0
117.24188654960008,101.072431123778,64.27620973920503,19533.333333333336
117.52640127486131,101.1152431736692,64.61325120284393,19566.666666666668
117.31099261438507,101.2110569703656,64.41482026294015,19600.0
117.53878203649893,101.28494995618284,64.57257506572576,19633.33333333333
117.55906092892393,101.29151484402628,64.57200621127562,19666.666666666668
117.4626016635149,101.38162446381624,64.42165951754994,19700.0
117.57557308242241,101.366711252556,64.55417185554171,19733.333333333336
117.4143412819212,101.41675506972312,64.39263256614855,19766.666666666664
117.51350644957952,101.28664114508864,64.55002075550021,19800.0
117.35767107913229,101.26118106483405,64.33410205556325,19833.33333333333
117.33465553556879,101.25870577925372,64.30947219531693,19866.666666666668
117.42244361422443,101.10534569438678,64.39026490168042,19900.0
117.33251848776965,101.09518318650738,64.33745368448565,19933.33333333333
117.43275986654983,100.95421490398658,64.39764463508757,19966.666666666664
117.29744937964115,100.96834401857237,64.25667635256677,20000.0
117.512645480682,100.80031671355871,64.57091462570915,20033.333333333336
117.52834278861677,100.79771843242165,64.60824377719355,20066.666666666668
117.2463139769076,100.76278769429454,64.19419460971973,20100.0
117.33387143889428,100.73801946404686,64.33399443445107,20133.33333333333
117.17848178757272,100.788184879094,64.23648607284971,20166.666666666668
117.46391277641277,100.77392506142506,64.4466984029484,20200.0
117.37506170554116,100.79632543502407,64.15238183388868,20233.333333333336
117.40667036899914,100.84552017771195,64.1989232383068,20266.666666666664
117.52381833888685,100.81337159076885,64.31696593854129,20300.0
117.44622362088116,100.85739849438481,64.21533691225473,20333.33333333333
117.56250771319263,100.8214550166605,64.36673145748489,20366.666666666668
117.65330856744828,100.98240074297657,64.26244098753965,20400.0
117.71935608699016,100.98396408946677,64.43677733921523,20433.33333333333
117.73464902097359,100.9841498336042,64.43310889250058,20466.666666666664
117.47778600518328,100.93585708996667,64.21468900407257,20500.0
117.52452992635641,100.88692095998032,64.49742478052981,20533.333333333336
117.29062312623957,100.99254339436987,64.25003459250034,20566.666666666668
117.473280202638,100.92960182868441,64.35140394773423,20600.0
117.30529537802263,101.0296449341904,64.30543311906949,20633.33333333333
117.29801040710129,101.04516375880013,64.29842363024181,20666.666666666668
117.38041016222832,101.06691153963881,64.48412917049279,20700.0
117.3786264471196,101.1273618990514,64.2953738296204,20733.333333333336
117.38705234159781,101.19524028160393,64.49520967248239,20766.666666666664
117.42754792983105,101.22881785895487,64.36053072582753,20800.0
117.50033055055886,101.16685884722416,64.48258844149255,20833.33333333333
117.49333517826669,101.17883553956614,64.4787140814538,20866.666666666668
117.33482465445937,101.13032916685884,64.30252294635856,20900.0
117.37378349707113,100.98156604092678,64.41999907753332,20933.33333333333
117.30278431191674,100.97596974309305,64.29351352182402,20966.666666666664
117.65267493520919,100.86284400839195,64.56320190053067,21000.0
117.22970957674154,100.71497317159418,64.268299432683,21033.333333333336
117.22116138554495,100.68825238688251,64.25842903925097,21066.666666666668
117.34697046569192,100.65841058991744,64.40467075626893,21100.0
117.24051781129408,100.70933075042663,64.26135018372462,21133.33333333333
117.39227895392281,100.6011100349,64.4423073966453,21166.666666666668
117.28478083729229,100.64268253309349,64.2725427793921,21200.0
117.33393293667268,100.634856940793,64.37393724151715,21233.333333333336
117.37160032593825,100.6173608228403,64.3649739403164,21266.666666666664
117.46194310749105,100.73511353819572,64.25408799210169,21300.0
117.55332901394544,100.7149358262372,64.33887140565223,21333.33333333333
117.27939978168287,100.67446151007795,64.251310671402,21366.666666666668
117.32713743216028,100.65965591992986,64.35335086020018,21400.0
117.25054194917207,100.73031686730316,64.23047829897145,21433.33333333333
117.26071983149609,100.72857955506358,64.19660839752164,21466.666666666664
117.50924772842579,100.71943176052766,64.53446181756685,21500.0
117.32864412773087,100.81390772258352,64.24814353581478,21533.333333333336
117.40268745291577,100.81993450486601,64.38177820826222,21566.666666666668
117.30436787971036,100.8804021954707,64.24768230247682,21600.0
117.40284119736178,100.88063281213968,64.39115661946714,21633.33333333333
117.43013083652352,100.88233937549006,64.40064265178421,21666.666666666668
117.1495510404217,100.88590604026844,64.24806165915847,21700.0
117.30061904324108,100.89002788759157,64.43188992062763,21733.333333333336
117.24118169838499,101.00873402592626,64.37573166620697,21766.666666666664
117.45920391125871,101.04732254047323,64.4566978767892,21800.0
117.38436111495471,101.07053795181648,64.33774579893301,21833.33333333333
117.39586119951416,101.0731516073982,64.34168165675014,21866.666666666668
117.51163076733853,101.01595867349293,64.43787955660102,21900.0
117.40282582291715,100.98863828544194,64.33983672339836,21933.33333333333
117.34055039686187,100.68782752597224,64.51083325671907,21966.666666666664
117.16582390977905,100.55257270693512,64.24608501118568,22000.0
117.23945021605223,100.47673990990162,64.37784621985229,22033.333333333336
117.22461769483007,100.47686249272164,64.3861818516135,22066.66666666667
117.06683828261473,100.5006895283626,64.19453893536821,22100.0
117.32999707885551,100.52695908860292,64.36116107805606,22133.33333333333
117.2589363959227,100.55827683224943,64.24411543133004,22166.66666666667
117.32844425995114,100.5093860984272,64.33583936780283,22200.0
117.23021693341327,100.54011961317896,64.17173254616179,22233.333333333336
117.05476387484293,100.47015108332569,64.12812969262357,22266.666666666664
117.33719231892748,100.49195147825284,64.34873852682071,22300.0
117.0117144600366,100.458923123856,64.28946003660771,22333.33333333333
117.07953020134228,100.45860280658935,64.38267236119586,22366.66666666667
117.06804878796235,100.5091324200913,64.17386840734271,22400.0
117.27467968273338,100.48035387431361,64.51325503355704,22433.33333333333
117.53340098088957,100.56422674230892,64.50065341389542,22466.666666666664
117.3207416632074,100.60412342604124,64.2105376443276,22500.0
117.39689128730222,100.60177113601772,64.33856064449672,22533.333333333336
117.31203972756485,100.66259243884815,64.17577602509111,22566.66666666667
117.3106252786618,100.72427471057608,64.24151715019296,22600.0
117.30954906753992,100.72833356395,64.20990729209906,22633.33333333333
117.3123164675676,100.74555294189993,64.1842319696201,22666.66666666667
117.27977996383808,100.686111366492,64.36949526523857,22700.0
117.3583168058054,100.84004427840044,64.25438556032164,22733.333333333336
117.48102024814354,100.85909321525759,64.33660809003275,22766.666666666664
117.38692864720262,100.92468059591349,64.25006534138954,22800.0
117.31120713432013,100.87318807269159,64.38040513622016,22833.33333333333
117.32790904354755,100.87373969538167,64.38900125647389,22866.66666666667
117.24934877876863,100.91984615856087,64.22208942416721,22900.0
117.25245491058477,100.68270185244577,64.46830378277669,22933.33333333333
117.16073672274831,100.71444332076858,64.22975085041831,22966.666666666664
117.15855704697987,100.63592129347164,64.42007321537523,23000.0
117.02336790726048,100.63518913971936,64.16407870652837,23033.333333333336
117.01102806589384,100.64362416107383,64.14466137888957,23066.66666666667
117.10179987797436,100.5360128126907,64.25378279438682,23100.0
116.97048505186086,100.57673886516169,64.12896583282489,23133.33333333333
117.09476815131178,100.49238865161684,64.26352959121415,23166.66666666667
116.99859670530813,100.51342281879197,64.09926784624771,23200.0
117.07861500915192,100.48386211104332,64.21052471018913,23233.333333333336
117.1004881025015,100.47681513117756,64.21383465527761,23266.666666666664
116.98660768761441,100.52004270896887,64.04633923123856,23300.0
117.28677685950413,100.59663299663299,64.21692684419958,23333.33333333333
117.27698599388096,100.62125055732365,64.04905985271282,23366.66666666667
117.77341725286932,100.68419104035543,64.39025669505122,23400.0
117.52135011724053,100.73009996297668,64.16827101073676,23433.33333333333
117.48440392447245,100.73465074663706,64.14081204492163,23466.666666666664
117.593869554486,100.73995742317659,64.28805689250896,23500.0
117.37160032593825,100.69146564580356,64.17073320726288,23533.333333333336
117.6541250154264,100.79981179809948,64.30700049364434,23566.66666666667
117.42668696093357,100.77896161001185,64.17571452731269,23600.0
117.50695693618069,100.74796672970189,64.27052872714974,23633.33333333333
117.52300785634121,100.76315668096493,64.27946127946129,23666.66666666667
117.26065704391527,100.7573779534798,64.17474180993534,23700.0
117.36569519781807,100.77499923385736,64.31621770708836,23733.333333333336
117.24407771750788,100.87663571450464,64.18393552143667,23766.666666666664
117.53952000983965,100.93673416047844,64.36417446919731,23800.0
117.4338207032271,101.0102240056578,64.24051781129407,23833.33333333333
117.25019153565628,100.91474364867763,64.16237626796604,23866.66666666667
117.30770757929778,100.69123867992244,64.51660787098548,23900.0
117.04289793986042,100.69215497625264,64.19436172324797,23933.33333333333
117.45583690789171,100.80220777024431,64.35874729025414,23966.666666666664
117.28910105622437,100.79084605568623,64.21611856771675,24000.0
117.57836603727016,100.77128841169936,64.31580895964457,24033.333333333336
117.57651487103544,100.7806059484142,64.30138528939901,24066.66666666667
117.49700728125386,100.77625570776256,64.21137233123535,24100.0
117.60750647908182,100.80067567567568,64.30943786252007,24133.33333333333
117.30349153636827,100.71020709376872,64.13907722583522,24166.66666666667
117.43246775210243,100.68300970127454,64.29319065848746,24200.0
117.31476100425873,100.71023784265793,64.20384976092738,24233.333333333336
117.30470611749149,100.70667097151116,64.17891241178913,24266.666666666664
117.40528573405285,100.64935504204912,64.3591162769245,24300.0
117.2836738772812,100.7258582783697,64.1961471641837,24333.33333333333
117.57520409575204,100.663899266639,64.4890918315576,24366.66666666667
117.40024094152537,100.74376795477714,64.1245945695487,24400.0
117.64977994049096,100.84814344160677,64.32579655343417,24433.33333333333
117.65335978180016,100.85386188941237,64.34326183982147,24466.666666666664
117.31433051980996,100.79436680349924,64.21850160662946,24500.0
117.69671726521042,100.9364124398371,64.44782796495126,24533.333333333336
117.36541979920976,100.91633227249666,64.24675983580093,24566.66666666667
117.49647156496471,100.91711636917117,64.39044939501561,24600.0
117.5690176477848,101.06772183142049,64.25240651610514,24633.33333333333
117.57310563988644,101.07761014439095,64.23582315191905,24666.66666666667
117.7305010489942,101.11799642107864,64.46823707268913,24700.0
117.65170307293594,101.19389423670246,64.32114648895471,24733.333333333336
117.58994818812172,101.0731669818428,64.4142182863644,24766.666666666664
117.46858232246359,101.17205540949834,64.25847516258476,24800.0
117.6978152914226,101.15102316928801,64.59920360376981,24833.33333333333
117.73620527958427,101.14285933920635,64.60121765601218,24866.66666666667
117.38958842611812,101.07158341404914,64.28136771059145,24900.0
117.61782673084043,101.14673577687277,64.39849438479575,24933.33333333333
117.7502824858757,101.20338983050848,64.2979645538271,24966.666666666664
117.61356333502451,100.94523622834127,64.4966253094107,25000.0
117.562120443399,100.99265101548208,64.48584782374736,25033.333333333336
117.54190304875236,100.99263564103748,64.4355426410221,25066.66666666667
117.72324159021409,100.89718283754982,64.46995953417972,25100.0
117.97653553102164,101.12515938423263,64.39070129062354,25133.33333333333
117.9191513761468,100.96967208033722,64.6231248450285,25166.66666666667
117.68675182031349,100.9617425644823,64.41248611625325,25200.0
118.04948533395249,101.02702577199905,64.66045971674019,25233.333333333336
118.04939246188377,101.0395015865645,64.6554910610634,25266.666666666664
117.82272269948143,101.04697778809692,64.44563114310037,25300.0
118.30215939586843,101.1550427510454,64.72756350246522,25333.33333333333
118.24717412405676,101.32708144158812,64.51579672480196,25366.66666666667
118.33670977236437,101.31072110717976,64.60619344334158,25400.0
118.28385307089312,101.4591612511104,64.57065158103075,25433.33333333333
118.28497514298628,101.47496376642201,64.57308273723254,25466.666666666664
118.25094075571451,101.31326387809051,64.6720883221894,25500.0
118.01499883909914,101.36412042411577,64.56090085906663,25533.333333333336
118.20283259809612,101.43462580295643,64.73372030028635,25566.66666666667
117.87461434036777,101.39895717635444,64.56034801925213,25600.0
118.32701803266,101.6140082036994,64.92505224053865,25633.33333333333
118.32906121817196,101.62713412274591,64.91297887160437,25666.66666666667
117.77439539996618,101.50226773057823,64.66952631336193,25700.0
118.01643528127545,101.53152529864859,64.90318712236521,25733.333333333336
117.79152253124857,101.56299678674108,64.55707762557078,25766.666666666664
118.2900160434407,101.58749845736149,65.04168209305196,25800.0
117.68528511907508,101.3845917316237,64.55504819888381,25833.33333333333
117.68989745245452,101.3745368448565,64.52592900081484,25866.66666666667
118.02360236949278,101.4218499321239,64.74649821053931,25900.0
117.85459089226211,101.40022213994816,64.58902566950512,25933.33333333333
117.74069461740694,101.1580339160248,64.70405731592946,25966.666666666664
117.64715649647155,101.18278677182785,64.54277939209446,26000.0
117.73196799802305,101.02356902356905,64.5250362956785,26033.333333333336
117.74333549562908,101.01183084669323,64.54395638340593,26066.66666666667
117.61773700305812,101.00957588113552,64.36428505235845,26100.0
117.68961789145277,100.92665183949588,64.4976214746857,26133.33333333333
117.57603558520992,100.93429709943472,64.3342909214469,26166.66666666667
117.68808883946501,100.88505853643473,64.48067834306367,26200.0
117.61492601859577,100.9189293547092,64.34292465943842,26233.333333333336
117.60147345009732,100.91719951811695,64.31920118617367,26266.666666666664
117.86565965465047,100.84938065672013,64.59821456151732,26300.0
117.45891943244156,100.87055254206123,64.47920688915447,26333.33333333333
117.71809841534612,100.86182930219627,64.56888456429742,26366.66666666667
117.52934212751563,100.90166505234998,64.37057023815015,26400.0
117.70081549439348,100.88652580854416,64.42133876996263,26433.33333333333
117.71551910542738,100.88513576128256,64.43520835263955,26466.666666666664
117.6244246748834,100.96787446328732,64.28807957248326,26500.0
117.73558212090323,100.91431130880673,64.4035770549532,26533.333333333336
117.5025598450256,100.9838568331719,64.27595590609289,26566.66666666667
117.83466092239028,100.99834180510788,64.41589697495661,26600.0
117.50301176906684,100.96447656998116,64.20835263954531,26633.33333333333
117.51536774472557,100.94934049979922,64.19323201433293,26666.66666666667
117.84080236355156,100.94266832529934,64.3618721816203,26700.0
117.57560560328147,100.90892345793672,64.23532234347186,26733.333333333336
117.76526201212877,100.66196547970767,64.38756025501478,26766.666666666664
117.0137293790262,100.39453899727872,64.05797703057978,26800.0
117.10645265439786,100.30636655750813,64.22062327998401,26833.33333333333
117.0995495287733,100.29829497409406,64.20529495871962,26866.66666666667
116.96974309303076,100.31731316206202,64.01352951124639,26900.0
117.05731592946205,100.26024322371354,64.16275387051644,26933.33333333333
116.93081499930815,100.3148839998155,64.02014052242363,26966.666666666664
117.31627175120329,100.39186103912131,64.29194434160189,27000.0
116.8937863483318,100.33063973063973,64.10855524946435,27033.333333333336
116.88399142944598,100.33709825528007,64.10171411080502,27066.66666666667
117.113678643359,100.29837184631704,64.17886628845532,27100.0
117.03167135587229,100.32241747766862,64.08466706640222,27133.33333333333
117.07956275079563,100.31517611426287,64.20132835201329,27166.66666666667
117.0083636978614,100.3590394047015,64.09982626877604,27200.0
117.25958212259584,100.35733284135112,64.34134341896899,27233.333333333336
117.24781144781146,100.41988062442609,64.45850933578207,27266.666666666664
116.78971934106166,100.34896278218426,64.12063758389262,27300.0
116.87211714460035,100.37858450274557,64.31334655277608,27333.33333333333
116.8524102846986,100.37360178970914,64.02301492445834,27366.66666666667
116.98469247035028,100.4082774049217,64.13289509975176,27400.0
116.67795421987871,100.3694717912768,63.91901612362462,27433.33333333333
116.67068487305313,100.37424182388979,63.90022554786797,27466.666666666664
116.88937486665243,100.48204760888781,64.16917614069311,27500.0
116.65322592879141,100.47952790545973,63.97527268314144,27533.333333333336
117.17359259599769,100.61001808096596,64.16510373571144,27566.66666666667
117.15309152127334,100.70327517600245,64.14912764003674,27600.0
117.19791522531249,100.49116738157835,64.19740786864075,27633.33333333333
117.19585504973637,100.48261919038177,64.19571667973493,27666.66666666667
117.08048521747152,100.44020109773537,64.05617822056179,27700.0
117.43372824879671,100.38917684808096,64.26778662223867,27733.333333333336
116.810502283105,100.13926940639273,63.90337409212099,27766.666666666664
116.879148662315,100.09973644693692,64.06640924274464,27800.0
116.81672336122091,100.12189329165516,63.946783733259785,27833.33333333333
116.83564708406116,100.1068615733505,63.95755569856885,27866.66666666667
117.0916931875836,100.15083867595284,64.13772427471058,27900.0
116.95965717783899,100.2132843587389,64.07102846648301,27933.33333333333
116.88878889566809,100.05234899328859,64.13265710799269,27966.666666666664
116.76860890787066,100.10416412446614,64.04641549725443,28000.0
116.8839841366687,100.07359670530813,64.10912141549726,28033.333333333336
116.87640329469187,100.08377059182429,64.1132245271507,28066.66666666667
116.78334350213542,100.11982916412448,64.03309945088469,28100.0
116.83743136058573,100.1271812080537,64.13450274557657,28133.33333333333
117.11501842751842,100.37168304668305,64.03776105651106,28166.66666666667
117.4418765356265,100.38766891891892,64.45184275184275,28200.0
117.00769819406185,100.39220997857365,64.08986838077747,28233.333333333336
117.00010713192532,100.38541475359658,64.10564738292011,28266.666666666664
117.1109121518212,100.4210743801653,64.20948882767065,28300.0
117.00329048056321,100.48449647995103,64.13743495561678,28333.33333333333
117.09683195592287,100.46346801346802,64.28281297826753,28366.66666666667
117.10842058330644,100.53587626646988,64.09421459649771,28400.0
117.16515151515152,100.57341597796145,64.23705234159779,28433.33333333333
117.1853382307928,100.56764615855523,64.26241199877563,28466.666666666664
117.10074873545193,100.58630444475193,64.01841858462863,28500.0
117.1756684039789,100.5517580677398,64.16333809941115,28533.333333333336
117.04573002754822,100.61925313743495,64.10402509947964,28566.66666666667
117.0888642897775,100.45409959565212,64.13432652245437,28600.0
116.99872972145701,100.50258647076828,64.0555402509948,28633.33333333333
116.98340985613713,100.49118457300276,64.04872972145701,28666.66666666667
117.20005227311165,100.22987869563214,64.14087603585321,28700.0
116.93916332272495,100.22606583337178,63.90035822455914,28733.333333333336
117.17319202764408,100.23313896087869,64.06816919659386,28766.666666666664
116.91876143474316,100.20132835201328,63.934489491567106,28800.0
117.03631443814092,100.1153698322648,64.0976277231985,28833.33333333333
117.02579831803577,100.1197361745307,64.10233230324555,28866.66666666667
116.94439063388836,100.1824946573805,63.896453115631196,28900.0
117.01031625232538,100.16238488384607,63.99901603554572,28933.33333333333
116.93142997709208,100.18666113186659,63.896068754516236,28966.666666666664
117.00856356564121,100.17463831619085,64.04155712374889,29000.0
116.93725689159479,100.24128653352398,63.895561397844496,29033.333333333336
116.94039327829285,100.25530802699751,63.85749427301939,29066.66666666667
117.01391387236136,100.22858724228588,64.05195024829729,29100.0
116.9669910674477,100.27717048721615,63.940424027182026,29133.33333333333
117.02172409021723,100.33393293667268,64.05265747274879,29166.66666666667
116.98318035760958,100.38333102716663,63.945051735006075,29200.0
117.08829543532741,100.40139599956952,64.0976277231985,29233.333333333336
117.10463846993528,100.39221745614441,64.11137247666929,29266.666666666664
117.0253524591424,100.45629814122965,63.93425887489815,29300.0
117.28830371467359,100.57085338763422,64.07370726891276,29333.33333333333
117.08675799086758,100.5347693064588,64.03185584920745,29366.66666666667
117.00772271766114,100.47687781557416,64.14498483037602,29400.0
116.94154331770402,100.55295577824768,63.97673990990162,29433.33333333333
117.06256504438323,100.74496479951029,64.10945821854914,29466.666666666664
117.22126900665714,100.6920806235875,64.16419906830866,29500.0
116.77891296712023,100.59356149111956,64.00661260518318,29533.333333333336
116.89270169972971,100.6121470350178,64.1901925749454,29566.66666666667
116.9297140755723,100.78777849284424,63.99141920259876,29600.0
117.19605589776592,100.69029450522508,64.3138426649505,29633.33333333333
117.20678189451748,100.69823174282124,64.32492108730962,29666.66666666667
117.09970327321926,100.74304690743048,64.08589702197008,29700.0
117.11406300447395,100.70866964930893,64.13883123472165,29733.333333333336
117.04613870823916,100.71243638823549,64.07528865519733,29766.666666666664
117.07671847854496,100.59586734929199,64.20252755869194,29800.0
117.02090924465357,100.60758267607584,64.03200959365343,29833.33333333333
117.02054025798321,100.60376981381548,64.02098611687653,29866.66666666667
117.13637132358593,100.5137370662485,64.09871930876497,29900.0
117.05465615054656,100.52777393416665,63.99734022108451,29933.33333333333
117.11613855449473,100.46114109127808,64.11902895007918,29966.666666666664
117.01852620574086,100.47869870700922,64.0025060344695,30000.0
116.92769981696155,100.40195241000609,64.23593654667481,30033.333333333336
117.03680549171034,100.39683123410255,64.21663448867639,30066.66666666667
116.81098230628432,100.45681818181818,64.11391092129347,30100.0
117.0973460819466,100.4178848334406,64.34467224418498,30133.33333333333
116.81256863941427,100.48078096400243,64.10681818181818,30166.66666666667
116.94466917961452,100.47490116760136,64.11639238760688,30200.0
116.81388041488712,100.52248322147648,64.04571384990848,30233.333333333336
116.90087646716313,100.51979712543287,64.00956145996139,30266.666666666664
117.03435383531,100.50317183046795,64.13166927155159,30300.0
116.86020439292251,100.57185784014645,64.05909090909091,30333.33333333333
116.96453630262356,100.59205308114704,64.17367297132398,30366.66666666667
116.87283404514947,100.6452562538133,64.09054301403296,30400.0
117.06087769299131,100.64743648677636,64.18160644785634,30433.33333333333
116.9681513117755,100.67083587553387,64.2005033557047,30466.666666666664
116.8744508846858,100.74461561928005,64.06130262355094,30500.0
117.04711777144432,100.75742392203732,64.13500965339708,30533.333333333336
117.03300542428978,100.8605620422298,64.05880910790353,30566.66666666667
117.58093876358716,101.0644496717556,64.43617299325062,30600.0
117.2793536583491,101.14521162922988,64.13538735913166,30633.33333333333
117.278477315007,101.15595836600404,64.10493058438264,30666.66666666667
117.47548544808821,101.18106483403288,64.33264148332641,30700.0
117.04773211567732,101.09316590563164,64.20907153729071,30733.333333333336
117.06243531202436,101.00325722983256,64.25546423135464,30766.666666666664
116.95453025235634,101.01533900881728,64.10038005472788,30800.0
117.22982746468081,100.91966228433084,64.231114584291,30833.33333333333
117.27754282737274,100.89143759002177,64.27912108118048,30866.66666666667
117.17723659732792,100.99800132220224,64.05667020278892,30900.0
117.3210952754332,100.87588210875884,64.20075949756315,30933.33333333333
117.19839183309506,100.86565810310104,64.0576849161324,30966.666666666664
117.21337618610346,100.78047138047138,64.23895010713193,31000.0
116.90007626601586,100.7266168395363,64.04902379499696,31033.333333333336
116.90042708968883,100.71281269066506,64.0607687614399,31066.66666666667
117.2607336581778,100.63807422389752,64.32793968925255,31100.0
116.96269066503966,100.64016168395365,64.14226662599145,31133.33333333333
117.08372406607214,100.6337991480494,64.15762618369035,31166.66666666667
117.02022616530293,100.6620544880635,64.03161104471208,31200.0
117.11616254481936,100.64737519536637,64.23500658882658,31233.333333333336
117.26457881709023,100.73579016958011,64.24929661915964,31266.666666666664
116.95964002440512,100.764399023795,64.12408480780964,31300.0
117.02722696766321,100.75358450274557,64.26072300183039,31333.33333333333
117.19313377304243,100.8694402164722,64.10039512322618,31366.66666666667
117.30945682087237,100.84410313177438,64.2530787325308,31400.0
117.36375921375921,101.07943796068795,64.26259213759215,31433.33333333333
117.1539332721151,100.9845883073156,64.19061830425467,31466.666666666664
117.24980104071014,100.96424854606673,64.37222222222222,31500.0
117.21610319327215,100.96164076072752,64.17439232507726,31533.333333333336
117.46134095905785,100.97406331196285,64.47015051581262,31566.66666666667
117.20108236089972,101.12179635010685,64.14135264363576,31600.0
117.29727578818488,101.08014998469544,64.38347107438017,31633.33333333333
117.30376492194674,101.09943373125192,64.39423018059382,31666.66666666667
117.17037037037035,101.16299357208449,64.26533516988063,31700.0
117.35973125470842,101.08268376304906,64.3082729886383,31733.333333333336
117.234398782344,101.0986731854312,64.16343034607875,31766.666666666664
117.28505757729502,100.97149577971494,64.27832357056101,31800.0
117.08925619834713,100.96441689623508,64.17323232323233,31833.33333333333
117.0863024181206,100.95627486991123,64.15739210284666,31866.66666666667
117.27208154605415,100.78884737788849,64.3081961164153,31900.0
117.15477453376995,100.78165213781652,64.1723321495011,31933.33333333333
117.21887059329984,100.70567163261228,64.28788647510109,31966.666666666664
117.09461433205726,100.73291514844028,64.10972741109728,32000.0
117.06894447834046,100.52146125686394,64.35358450274558,32033.33333333333
117.09412751677851,100.51107382550337,64.38004881025016,32066.66666666667
116.6393432654302,100.39635147461235,64.04958954089389,32100.0
116.9435936546675,100.44890176937157,64.2672361195851,32133.33333333333
116.8505643685174,100.4903447223917,64.16505491153143,32166.666666666664
116.93979560707749,100.48104026845638,64.31949359365467,32200.000000000004
116.87133923123855,100.49574435631484,64.19514948139111,32233.333333333336
116.8403447223917,100.50715375228798,64.17117144600364,32266.666666666664
117.02535932089116,100.53695872023536,64.23624773987926,32300.0
116.95812264411144,100.58439827158224,64.11987067512489,32333.333333333336
116.87637635344605,100.48985201814268,64.15186084513066,32366.66666666667
116.80122478276141,100.53586536552588,64.05429055756632,32400.0
117.02316961561928,100.64098535692496,64.32266625991458,32433.33333333333
117.03108602806593,100.63840756558878,64.335158633313,32466.66666666667
116.75548632427729,100.52603045158138,63.9968693208717,32500.0
117.14139928289049,100.6262143360608,64.30599736446936,32533.33333333333
116.7115499152426,100.60322841740351,64.03503306302592,32566.66666666667
117.00798320615364,100.69104532499772,64.22322331525237,32600.0
116.94745793876987,100.72483221476507,64.09805093316172,32633.33333333333
116.93614967362323,100.73117587570104,64.08920964726794,32666.666666666664
117.03507400937758,100.69574944071587,64.25199963225154,32700.000000000004
116.90744997088656,100.71522478624621,64.1227207256903,32733.333333333336
117.10931230109313,100.65999415771105,64.20578694094677,32766.666666666664
117.03542272035423,100.6324585274357,64.05095090939841,32800.0
117.16624965248822,100.4334785160473,64.15994810490224,32833.333333333336
117.17886819262968,100.4293701541408,64.15993265993265,32866.666666666664
116.8650021550397,100.34719229111505,63.966535311865044,32900.0
116.95609876239143,100.24501262237546,64.08886460193337,32933.33333333333
116.99851728292096,100.33534117937788,63.94347141136132,32966.66666666667
116.88425117219822,100.13965247770523,64.06968833318011,33000.0
116.70025435935152,100.06654714841714,63.88573748889093,33033.33333333333
116.71075051331556,100.05819619380344,63.92159296374613,33066.66666666667
116.81486929606815,100.01622690079985,64.07970947871655,33100.0
116.78060739787321,100.03686678312036,63.93559805093316,33133.333333333336
117.03929708039296,100.0695539873622,64.08193041526376,33166.666666666664
116.79945450645091,100.05707762557077,63.96345499678221,33200.0
116.97090696385686,100.02830798596143,64.03412659319007,33233.333333333336
116.98396034726923,100.019287605443,64.06169570839235,33266.666666666664
116.83682694370384,100.14317673378076,63.99912659740738,33300.0
117.10669864551144,100.18872130744278,64.12865335239765,33333.333333333336
116.89082467592165,100.15287609941471,64.04399190953386,33366.666666666664
116.97782783242927,100.13231283135667,64.13056602617144,33400.0
116.80825198291642,100.19482916412449,64.08773642464918,33433.33333333333
116.87718733719471,100.20071404492658,64.04400723238638,33466.66666666667
117.46109465630012,100.40497346661728,64.353464766136,33500.0
116.94011829242132,100.2909503233122,64.0634366093592,33533.33333333333
117.30491793163029,100.51956065654696,64.12311798099469,33566.66666666667
117.26244909292856,100.52170492410221,64.06094964827842,33600.0
117.32762557077628,100.55118474639023,64.20979883993583,33633.333333333336
117.34655374552635,100.55113846723437,64.22346661730225,33666.666666666664
117.45643526042878,100.72104326290537,64.08443618914944,33700.0
117.33098852276936,100.61705541157595,64.21138775762064,33733.333333333336
117.23381772183144,100.62157534246576,64.06193693693695,33766.666666666664
117.31445143773912,100.47433049487844,64.13288288288288,33800.0
117.18869554485994,100.4599839565593,63.98028507960015,33833.333333333336
117.1833580155498,100.46868443786249,63.948337035665816,33866.666666666664
117.22127607059114,100.32941503146984,64.02050166604961,33900.0
117.13862149821054,100.2978834999383,63.95861100826855,33933.33333333333
117.2911884487227,100.15343082808836,64.13359249660621,33966.66666666667
116.911766062451,99.9982165644266,63.888965761111876,34000.0
117.18692151055166,100.04811489571765,64.07338331482167,34033.33333333333
117.17161853634457,100.06261569788971,64.07622176971492,34066.66666666667
116.87293021539594,99.9795519886844,63.861353258613526,34100.0
116.98201189982012,99.92849345817385,63.94305305720831,34133.333333333336
116.88177052103993,99.97836815645034,63.823070891564036,34166.666666666664
116.96800578079115,99.94440600833296,63.97583137309165,34200.0
116.8914564211368,99.99626400996263,63.83962916839629,34233.333333333336
116.87294558984057,100.01096197899851,63.8276678504989,34266.666666666664
116.98842304321757,99.98361084205834,63.97801454422461,34300.0
116.92135971588029,100.04114201374477,63.829912519410236,34333.333333333336
116.96063666972758,100.03569023569023,63.96314661769208,34366.666666666664
116.86603917967555,100.09946434037344,63.840970309152134,34400.0
117.22412865335241,100.10631428439648,64.12645480682009,34433.33333333333
117.45097494755028,100.21120264099716,64.23994199679133,34466.66666666667
117.2590909090909,100.39326656394451,64.00386748844376,34500.0
117.39334416840799,100.33966411268476,63.965606377215394,34533.33333333333
117.12685116623472,100.2958472170801,63.837899543379,34566.66666666667
117.22519437245464,100.3236455633716,63.98307725533754,34600.0
116.96230186184522,100.28662577064405,63.831203972756484,34633.333333333336
116.97684608643513,100.29145334624786,63.821026090432476,34666.666666666664
117.07598050520426,100.29053087957195,63.974601417523786,34700.0
116.94799510254057,100.41319253137436,63.924977043158854,34733.333333333336
117.12175022677307,100.25118767584522,63.98608612763864,34766.666666666664
116.98748086929905,100.31241199877563,63.91808999081727,34800.0
117.09175468536199,100.1060836677275,63.94380640499362,34833.333333333336
117.10840520886185,100.08691173531356,63.98198115093093,34866.666666666664
116.98542502652091,100.10442322771091,63.7716741232723,34900.0
117.14296696031856,99.97921375090328,64.00066110111773,34933.33333333333
116.95399966176224,99.87305321095276,63.805728518057286,34966.66666666667
116.80348441665899,99.8467714749778,63.83100425975299,35000.0
116.76099414667034,99.84914651711563,63.78505102509883,35033.33333333333
116.92749411927494,99.90838368463942,63.77965346001876,35066.66666666667
117.0560859738942,99.88187814215212,63.885414264409704,35100.0
116.81114584291012,99.83488094143604,63.74859795899605,35133.333333333336
116.8993135362079,99.8123869939628,63.84127057092948,35166.666666666664
116.80208968883464,99.90269981696156,63.832535082367286,35200.0
117.08417508417507,99.89423919560906,63.89842104453979,35233.333333333336
117.09799670986885,99.90427870793171,63.9236043847916,35266.666666666664
116.87683491158714,99.87845913395238,63.802917471116416,35300.0
116.86018913971935,99.99612568639414,63.90298962782185,35333.333333333336
116.82254423428921,100.03810250152529,63.845302013422824,35366.666666666664
117.13470319634705,99.98956513744601,64.08105788973674,35400.0
117.03612994480578,100.19809971864768,63.86774902756638,35433.33333333333
117.00296726780745,100.21650292883172,63.826191903817474,35466.66666666667
117.0901557431238,100.24133265685778,63.89568439340129,35500.0
117.03800562704672,100.2792767861261,63.85155973740449,35533.33333333333
116.9593944408691,100.19895191688884,63.98936594036346,35566.66666666667
116.8814011216328,100.26773620177131,63.78708896448162,35600.0
116.99033128007109,100.26005945266769,63.96440501363734,35633.333333333336
116.9819803254574,100.27981060954308,63.9544451595109,35666.666666666664
116.91915663019829,100.36163464190494,63.79665042444302,35700.0
116.7721629174875,100.36566332218506,63.828087536842744,35733.333333333336
116.92289540620882,100.4877876865557,63.74541080567558,35766.666666666664
117.03188685605713,100.50877999448376,63.96380742238975,35800.0
116.79322246147736,100.52642751332449,63.76591683083642,35833.333333333336
116.68000912131346,100.52952265126177,63.81351474612344,35866.666666666664
117.14886151205909,100.57224724954796,64.01746805185253,35900.0
116.9469676074898,100.56067849590879,63.825380772884685,35933.33333333333
117.02702951181392,100.45481290797096,63.98340535074009,35966.66666666667
117.10217855879957,100.56252017895856,63.832879787217685,36000.0
117.13543348246544,100.48664729486649,63.90449395015605,36033.33333333333
117.1358178435804,100.48177359592884,63.92418861368633,36066.66666666667
117.01897206463416,100.45714373568256,63.848623218486225,36100.0
117.12244207677998,100.37532094153099,63.94957182171794,36133.333333333336
117.0569315683471,100.39867472287564,63.83577018280215,36166.66666666666
117.1340497824516,100.33690020448013,63.938532970496425,36200.0
117.09393785649492,100.41881524529929,63.86734929200683,36233.333333333336
117.27903245711464,100.48084042947058,63.848142663211156,36266.66666666666
117.36798099469331,100.44316919659386,64.0086079229915,36300.0
117.24719239787731,100.51274219424904,63.853032827347896,36333.333333333336
117.4590737998272,100.4372917437986,64.16373565346169,36366.66666666666
117.05115077717821,100.40513198960687,63.84831572959427,36400.0
117.18064972402873,100.39939732177177,63.98365696539213,36433.33333333333
117.17714435066034,100.41790815306796,63.97544701197669,36466.66666666667
117.11280230001692,100.45199329674216,63.86233722306782,36500.0
117.16429445974902,100.51929905111723,64.04475053565963,36533.33333333333
117.08542041418757,100.5373675875959,63.79485878572637,36566.66666666667
117.13561371288642,100.6068411386593,64.07353841444751,36600.0
117.09701274541456,100.62344910290115,63.85165198407208,36633.333333333336
117.09799670986885,100.629844871854,63.83160370831604,36666.66666666666
117.43503949154636,100.77617857583613,64.0391521658645,36700.0
117.38308951152989,100.82579655343416,63.9059633027523,36733.333333333336
117.43278723929407,100.86799642107864,64.04604776008885,36766.66666666666
117.15923312270344,100.80701997140352,63.84986854849869,36800.0
117.7080710847834,100.99290386276688,64.28757867456497,36833.333333333336
117.50280073461893,100.91513621059076,64.37696663605755,36866.66666666666
117.27701254973982,101.0062136516682,64.20397918579737,36900.0
117.40279507402796,101.05305720830836,64.16330735052196,36933.33333333333
117.33768430115464,101.09273864981628,64.07109143182203,36966.66666666667
117.46603016466032,101.06146702950356,64.24965023138539,37000.0
117.37213843149915,101.12301093123013,64.05979121504235,37033.33333333333
117.36002336915578,101.13475700690313,64.04598496379319,37066.66666666667
117.42228986977844,101.09330750426642,64.16072444382947,37100.0
117.2259718396082,101.12373737373736,64.09635751453932,37133.333333333336
117.31449963870057,101.02017127131285,64.09359961871378,37166.66666666666
117.27389573051674,101.00189105668558,64.02565994803436,37200.0
117.39675982800982,100.96604729729731,64.21068796068796,37233.333333333336
117.34630936457421,100.87840351767292,64.18747597743031,37266.66666666666
117.14726048362414,100.9055402509948,64.05475971839608,37300.0
117.49679054054054,100.8643581081081,64.31798218673218,37333.333333333336
117.27383292383291,100.84815724815724,64.05107493857493,37366.66666666666
117.36469517462669,100.74446192768112,64.08248488214242,37400.0
117.29376465506607,100.79064852523756,63.982753301246454,37433.33333333333
117.30022831050228,100.77310872516351,63.99463161791929,37466.66666666667
117.38171047760088,100.76929840799706,64.14962051092188,37500.0
117.31349500185115,100.80323645563372,63.99217882265828,37533.33333333333
117.27023661270235,100.70700920929232,64.10995802776624,37566.66666666667
117.16621312055102,100.7374506095967,64.011899820119,37600.0
117.2988638285442,100.75390126531677,64.16993373614379,37633.333333333336
117.2884860784404,100.76978306658673,64.16433743831004,37666.66666666666
117.2503574558369,100.8039758313731,64.00030748889196,37700.0
117.30080100856355,100.81564503482313,64.10247067324693,37733.333333333336
117.244576664668,100.87048567870485,64.00267515336009,37766.66666666666
117.44216406489134,100.93239975512705,64.39689317416591,37800.0
117.06391161778677,100.84940700560816,63.994039410376644,37833.333333333336
117.06055591308878,100.85169011063101,63.991756305353796,37866.66666666666
117.16138028255341,100.8647758266679,64.17115626244981,37900.0
116.99908480780964,100.92731848688223,64.06961561928004,37933.33333333333
117.19683736324356,100.94958781526769,64.13159265728908,37966.66666666667
116.93705044211298,100.94728241780058,63.98222385119347,38000.0
117.22824921087307,101.01097116239158,64.17648861512059,38033.33333333333
117.21451993503108,101.0220955533082,64.17510955839539,38066.66666666667
117.11587141062179,101.07419325181576,64.05140817014495,38100.0
117.20445282093716,101.00494928135822,64.18186693634887,38133.333333333336
117.082712757807,101.04414513805892,64.05903895069106,38166.66666666666
117.1599705801232,100.90933468174437,64.21902485366675,38200.0
117.03069167356196,100.89232631546687,64.01838742300265,38233.333333333336
117.03167233612207,100.86882105972849,64.01831080874015,38266.66666666666
117.24141154117252,100.66433759308632,64.30996598326745,38300.0
116.9317979835126,100.59112500383073,63.995249915724315,38333.333333333336
117.03397076399744,100.50378474456804,64.12319573411786,38366.66666666666
116.91814532193311,100.56515276883944,63.94522080230456,38400.0
116.97493181330636,100.49633783825195,64.14291624528822,38433.33333333333
116.98578039287794,100.49149581686129,64.14363641935583,38466.66666666667
116.92542367687169,100.49436119027918,63.94773375011492,38500.0
117.00148631669272,100.42847292451964,64.07293677791057,38533.33333333333
116.88555521659548,100.51374313605858,64.00565893837705,38566.66666666667
116.97037827943869,100.45314215985356,64.15590298962782,38600.0
116.8696484937636,100.43809567589102,63.916444485305384,38633.333333333336
116.8772945971622,100.4263124023168,63.95210076307806,38666.66666666666
116.9677147497778,100.40147405841073,64.06637859703963,38700.0
116.86662989182066,100.47195917992092,63.93454077411051,38733.333333333336
117.15059299439184,100.43555208237564,64.20403910391958,38766.66666666666
116.72553870588415,100.43553091736534,63.884577205601616,38800.0
116.76472564560713,100.44512148562178,63.91421939188467,38833.333333333336
116.77259052244163,100.440036040989,63.92895649119592,38866.66666666666
116.88400600655821,100.5592075020686,63.84663356930526,38900.0
116.94738132450738,100.54802181974196,63.974916490453865,38933.33333333333
116.88418988078821,100.589669332843,63.87763169991726,38966.66666666667
116.90225747406956,100.6944173276388,64.0402379499695,39000.0
116.89156017284178,100.68439520701172,63.86774846005332,39033.33333333333
116.89928289050287,100.68221936195644,63.878459133952376,39066.66666666667
117.0110018080966,100.69749624590116,64.06530599736448,39100.0
116.97130029726334,100.75419080015936,63.98935061751096,39133.333333333336
116.86386890853836,100.72225531070082,64.00493272857776,39166.66666666666
116.99220066807636,100.84382948729737,63.93388189145289,39200.0
117.2732064601146,100.73330575219885,64.26145383224541,39233.333333333336
117.29638993595049,100.73304526370629,64.28105176059576,39266.66666666666
116.95479758511844,100.69613251202844,63.93892310992614,39300.0
117.01081793386656,100.60015016395452,64.0723851552205,39333.333333333336
116.92277282338881,100.57940302166651,63.9586129753915,39366.66666666666
116.97275596825104,100.39408844350464,64.0475621341669,39400.0
116.82838405197512,100.39051821887163,63.88751493978119,39433.33333333333
116.82755661794,100.37700346296472,63.85542888664153,39466.66666666667
116.7571967440937,100.13373344939754,63.93275912096639,39500.0
116.61591669200364,100.23260869565216,63.925646093037386,39533.33333333333
116.80297437461869,100.247086638194,63.99975594874925,39566.66666666667
116.54601702645179,100.13862876254179,63.880480389176036,39600.0
116.8366687004271,100.12062233068943,64.06273642464917,39633.333333333336
116.8589841366687,100.10559792556437,64.07493898718731,39666.66666666666
116.71638194020744,100.16208053691277,63.87646430750458,39700.0
116.90355796635102,99.99488216726424,63.9979773834697,39733.333333333336
116.51138643964731,99.99084828215264,63.780571602310715,39766.66666666666
116.76002135448445,100.01308724832217,63.9657870652837,39800.0
116.5008361204013,99.98516266342352,63.82970507753117,39833.333333333336
116.49493767102464,99.98029796290665,63.82961386439646,39866.66666666666
116.79637461309795,99.96229045999205,63.89526830314732,39900.0
116.71402960375104,100.04172412736357,63.731083938585996,39933.33333333333
117.01311440124226,100.1281767446151,63.885383515520495,39966.66666666667
116.90449395015604,100.20432636870993,63.76641606321972,40000.0
116.98327211509027,100.25410162228344,63.97999693908785,40033.33333333333
116.968870523416,100.27257422711969,64.00850933578207,40066.66666666667
116.91775329048056,100.32580348943985,63.85022956841138,40100.0
117.13747828359699,100.31602170871578,63.90978275909782,40133.333333333336
117.04515474378486,100.38497609273865,63.830281506080595,40166.66666666666
117.33579324446904,100.40167273957228,64.18973602078626,40200.0
116.92546964542922,100.44650792191472,63.946461953357236,40233.333333333336
116.92009132420091,100.45142655756796,63.940164260978825,40266.66666666666
117.02951181391927,100.43342220587783,64.09098709815821,40300.0
116.92091875823604,100.4847997303178,63.906714473966474,40333.333333333336
117.16275387051644,100.43219101209972,64.06981535292037,40366.66666666666
116.86149673623241,100.3578345744844,63.94200300327911,40400.0
117.0459849637932,100.27378810940456,63.879525852128594,40433.33333333333
116.95699418426693,100.27401285583105,63.90561677379859,40466.66666666667
116.8926691153964,100.248347107438,63.77421181512091,40500.0
117.07573451409068,100.11904432452377,63.94741939947419,40533.33333333333
117.00495057116062,100.14195224697508,63.79496640683856,40566.66666666667
116.99022038567492,100.07154882154884,63.86986531986532,40600.0
116.88324150596878,100.09294459749006,63.789853076216716,40633.333333333336
116.87659932659932,100.08489439853076,63.775788184879104,40666.66666666666
117.1241046831956,99.99334251606979,64.00948882767065,40700.0
116.72962172056131,99.88056741915804,63.693380109823075,40733.333333333336
116.98867462503829,99.94423018059382,63.90968778696053,40766.66666666666
116.91820795473764,99.94595882723736,63.66257706440354,40800.0
117.09265437247092,99.93601149105736,63.77377753065827,40833.333333333336
117.09124888023972,99.92002594754892,63.79540048806105,40866.66666666666
116.91172329354148,100.04046525864707,63.791995714722994,40900.0
117.03491536368249,99.94907983949079,63.801792660240146,40933.33333333333
116.95171411080506,100.05771349862259,63.781848790939705,40966.66666666667
117.06973848069738,100.0313792414249,63.801362175791404,41000.0
116.7993288590604,100.11836485661988,63.75274557657107,41033.33333333333
116.79620195241002,100.13958206223309,63.742724222086636,41066.66666666667
116.9146278218426,100.13457901159245,63.89188529591214,41100.0
116.86638194020745,100.1914582062233,63.75896888346553,41133.333333333336
116.91169440102968,100.21597560601882,63.76200545493549,41166.66666666666
116.65761629674671,100.21079355427182,63.76061112800243,41200.0
117.10051811878296,100.32370893101486,63.90437095459927,41233.333333333336
117.12986793352093,100.33018157219072,63.91731623695094,41266.66666666666
116.84597315436241,100.33468578401464,63.83537217815741,41300.0
117.13721691803885,100.21661054994387,63.904078840151904,41333.333333333336
116.83572369832369,100.12675063589838,63.71474977781864,41366.66666666666
116.6695530001069,99.9274598738565,63.62294406010904,41400.0
116.71888346552777,100.04276998169615,63.70919768151312,41433.33333333333
116.55313165095774,99.93884159318944,63.672590453025244,41466.66666666667
116.68269990878684,99.82724232289448,63.76076314989359,41500.0
116.58694888593638,99.8094103633115,63.52984835295735,41533.33333333333
117.04252571375861,99.88260074104824,63.75311716864229,41566.66666666667
116.96382393186045,99.91148932244823,63.61640760727519,41600.0
117.22355979890229,99.79671909352275,63.95104776839936,41633.333333333336
116.96018692445135,99.62941922084269,63.95032146729586,41666.66666666666
116.81706143766894,99.68118996350088,63.847009056062056,41700.0
116.8382126112918,99.68312945739986,63.82255921565034,41733.333333333336
116.94813214427998,99.82987036866786,63.7951487848978,41766.66666666666
117.19245729748013,99.86445889642236,63.951370631735934,41800.0
116.75938058368077,99.74470457079151,63.72114048349904,41833.333333333336
116.93248751187521,99.85467806686891,63.77023382672918,41866.66666666666
117.01527688394472,99.86612423768808,63.86868315405596,41900.0
116.93280929177776,99.96317918543717,63.737243725291904,41933.33333333333
116.96992124053814,99.97709233550918,63.85644019490668,41966.66666666667
117.09379948649357,100.1069292621804,63.76981381547592,42000.0
117.12282643789491,100.12937595129377,63.83927555617053,42033.33333333333
117.15316021708715,100.13234321910122,63.82815983272605,42066.66666666667
117.08963301200744,100.18639976630844,63.69192687914149,42100.0
117.30422950970896,100.21126024322372,63.945943452792775,42133.333333333336
117.09189305536334,100.35885491136636,63.816782743723394,42166.66666666666
117.12178097566229,100.40734590962902,63.85632581522993,42200.0
117.07321310517658,100.4354350199099,63.81539904370955,42233.333333333336
117.09238503759052,100.42926986762603,63.822625032670686,42266.66666666666
117.14916286149165,100.34873852682071,63.99506480328398,42300.0
117.03665267592207,100.32878249773228,63.80151592023738,42333.333333333336
117.144212290331,100.19508632750644,63.899973863444174,42366.66666666666
117.03706778592623,100.19539381639838,63.746736774134035,42400.0
116.96892824746706,100.10311639992004,63.7742570299648,42433.33333333333
116.97866027089769,100.08763433420972,63.75434712421014,42466.66666666667
116.92274341589408,100.03629906369629,63.5976200359762,42500.0
117.02708977138201,99.94977168949772,63.7784542533401,42533.33333333333
116.95364604953646,99.95152437618192,63.61005796165614,42566.66666666667
117.14431991144319,99.88635210553021,63.90267976569346,42600.0
116.92066786587336,99.896268622296,63.63577940746891,42633.333333333336
116.92727887705057,99.89546915117693,63.61099580277664,42666.66666666666
117.03883584705505,99.86162999861631,63.716572113832385,42700.0
117.13805072195484,99.99097556460569,63.611393928174756,42733.333333333336
116.95493750288271,99.94843411281772,63.68751441354181,42766.66666666666
116.91817720584845,99.98207339759851,63.606306597174175,42800.0
117.02413787801916,99.96880525191028,63.73811171071446,42833.333333333336
117.04049628707165,99.97550850975507,63.74991928416586,42866.66666666666
116.61555260304516,99.8518806982178,63.569126922313345,42900.0
116.74878208946107,99.84937615491516,63.664284296208066,42933.33333333333
116.63271511097601,99.96898753420493,63.621784737002116,42966.66666666667
117.08344046525863,100.17618610345885,63.76585552494644,43000.0
116.87366308111919,100.12459011369556,63.565489871594494,43033.33333333333
116.68361204013378,100.12003648525386,63.63209182122226,43066.66666666667
117.31493725130088,100.35442301805936,64.08489439853076,43100.0
116.91767846247713,100.35751982916412,63.82913361805978,43133.333333333336
116.96549725442344,100.36061622940821,63.97294081757169,43166.66666666666
116.87304758999392,100.47182733374008,63.854682733374005,43200.0
116.97390176937157,100.48128431970714,63.964521049420384,43233.333333333336
117.08956207287548,100.4799883546321,63.95963960650915,43266.66666666666
116.93500610128127,100.52237644905428,63.823825503355714,43300.0
117.14228650137741,100.57497704315888,63.98269054178145,43333.333333333336
116.89672056131788,100.51783099450884,63.786729713239794,43366.66666666666
117.06870767061994,100.4089362875793,63.86779442861083,43400.0
116.95357175691828,100.4180687076706,63.72794275382305,43433.33333333333
116.8805369127517,100.41287370347773,63.74167175106773,43466.66666666667
117.1901050074566,100.39635318174132,63.833494765001625,43500.0
116.97239057239058,100.40942760942758,63.740250994796455,43533.33333333333
117.09124758665071,100.18582023229445,63.95487419938095,43566.66666666667
116.8298047589994,100.14060402684565,63.716839536302615,43600.0
116.859716290421,100.12097315436243,63.83518913971934,43633.333333333336
116.85773337400856,100.12484746796828,63.87297132397804,43666.66666666666
116.76597010372178,100.15858755338621,63.72678462477121,43700.0
116.82719646125686,100.13854484441731,63.829438682123254,43733.333333333336
116.75289810860279,100.18859060402686,63.645530811470394,43766.66666666666
117.03243036424857,100.23564432200796,63.80604530149985,43800.0
117.00835629017449,100.27416590143864,63.72513008876646,43833.333333333336
116.99652586470768,100.26943679216407,63.72513008876646,43866.66666666666
117.05159167431896,100.26052953780227,63.82491582491583,43900.0
116.99234771962044,100.31245791245793,63.71767676767677,43933.33333333333
117.06216712580351,100.3203244566881,63.82453321089685,43966.66666666667
116.97053872053871,100.39897459442915,63.75699418426692,44000.0
117.24880624426079,100.44467401285584,64.06337618610345,44033.33333333333
117.11002135448445,100.36237034777305,64.13820927394752,44066.66666666667
117.04546985001532,100.53178757269669,63.86594735231099,44100.0
116.96236707425454,100.38218258711042,63.78584781342894,44133.33333333334
116.8621568029286,100.51773947528982,63.77114093959732,44166.66666666666
117.00406055591309,100.4427997916092,63.887254451288655,44200.0
116.72081977978344,100.46779981979506,63.738519570562445,44233.33333333334
116.70021838395873,100.47575632626257,63.7378934347368,44266.66666666666
117.17652937287642,100.69029718801407,63.93605768491614,44300.0
116.92824308173208,100.63079586895896,63.738009867917,44333.33333333334
116.99275229076643,100.57279887223804,63.885109251938346,44366.66666666666
116.89500781465479,100.58652814808005,63.70878918819528,44400.0
117.07793305966824,100.6214043017696,63.82114908598928,44433.33333333333
117.09396860538412,100.60841289608412,63.82410097935213,44466.66666666667
116.66940028405186,100.37951466837707,63.657961851529464,44500.0
117.03329655848732,100.31899114339129,63.93247218902271,44533.33333333333
116.80581349023936,100.2938310195826,63.706306886089905,44566.66666666667
117.15039281705948,100.32870562550929,63.913672493581174,44600.0
116.83432931874596,100.2875639729092,63.66709570653672,44633.33333333334
116.81880726916124,100.27242499463699,63.65800925500291,44666.66666666666
117.05265747274879,100.33743831004105,63.87382193318267,44700.0
116.99022185323557,100.38070199714035,63.73300739510786,44733.33333333334
117.06864689513093,100.3598388758206,63.891579416693574,44766.66666666666
117.01240717679077,100.3989207139892,63.773027074396936,44800.0
117.10935842442692,100.38677490275663,63.91288839690665,44833.33333333334
117.1160616822717,100.39286318281752,63.93788724382332,44866.66666666666
116.85332965584871,100.3338083417609,63.712865066960866,44900.0
117.11272542779392,100.43771043771044,63.913610995802784,44933.33333333333
117.0372830281506,100.47819135033748,63.84488722844889,44966.66666666667
117.0462290459992,100.37991480494007,64.02977230241181,45000.0
116.83425270448343,100.48009561459965,63.77968802672306,45033.33333333333
117.03540734590963,100.57698753132543,63.80199252801993,45066.66666666667
117.08285288193964,100.61917500730286,63.848515597374046,45100.0
117.04475500822537,100.6420060575312,63.86439739864397,45133.33333333334
117.13797026582417,100.65776486324431,63.97109604415541,45166.66666666666
117.04506249711729,100.73173131620621,63.86905585535722,45200.0
117.06564887843427,100.78747905231924,63.88124778992359,45233.33333333334
117.08777270421106,100.79465891794659,63.92712513260459,45266.66666666666
117.05339544608951,100.83813784727027,63.89127192780161,45300.0
117.19090447857573,100.83824546838244,63.992128284365734,45333.33333333334
117.1339882846732,100.89379333671572,63.91244253801332,45366.66666666666
117.1742693295205,100.96892824746706,63.84394938732839,45400.0
117.12365665790323,101.01130021677969,63.833233399443436,45433.33333333333
117.127377273496,101.02200083022,63.806497240287186,45466.66666666667
117.19190340473783,100.87576231191198,64.09575250528638,45500.0
117.17259351505928,100.95153975062651,63.95490675399351,45533.33333333333
117.18191042848578,100.90964438909643,63.98662423319958,45566.66666666667
117.10247067324691,100.88827391110495,63.89253263225866,45600.0
116.92597852812271,100.64111727065868,64.02641987752172,45633.33333333334
117.11017130949098,100.69366553277555,64.02136005638809,45666.66666666666
117.09370723982596,100.76569346432359,63.84854634626325,45700.0
116.95263706291566,100.54527902914408,63.89278600104196,45733.33333333334
116.68622959331717,100.47086941250132,63.7673676333593,45766.66666666666
116.76823811487301,100.36720575434096,63.89592400849102,45800.0
116.87136465324384,100.49724188654959,63.820998437069036,45833.33333333334
116.86653795470563,100.49103613128621,63.80077227176611,45866.66666666666
117.06921574958105,100.50791015174578,63.855680088556795,45900.0
116.98823854988235,100.54513168211798,63.7970727057485,45933.33333333333
117.25015758805714,100.4329904832188,64.13097489353197,45966.66666666667
117.04699967713668,100.437879556601,63.859293083037386,46000.0
117.12348753901266,100.4260873575942,63.93222944821118,46033.33333333333
117.1290838368464,100.4143412819212,63.94492873944929,46066.66666666667
117.02263118244854,100.46922804913672,63.82008824931199,46100.0
117.08726534753932,100.48291130482912,63.88618298663961,46133.33333333334
117.01045462232678,100.51925649185922,63.836831019479426,46166.66666666666
117.0899866242332,100.49802438386914,63.996110265516656,46200.0
117.03028765585844,100.5568623833464,63.86327506418831,46233.33333333334
117.02287717356212,100.57626493242931,63.84236581953477,46266.66666666666
117.17583752286949,100.548268068816,63.961948249619475,46300.0
117.05170425718373,100.63544116968777,63.84279630398353,46333.33333333334
117.16430668942085,100.65422874098671,64.01234567901234,46366.66666666666
117.10708300662638,100.7097304859862,63.87153114093754,46400.0
117.36629614255186,100.7360515351383,64.19261104192611,46433.33333333333
117.37576680042434,100.75133373306886,64.22975570007533,46466.66666666667
117.07670645852464,100.93400673400672,64.02832874196511,46500.0
117.23482531739414,100.90197077811756,63.912782256818964,46533.33333333333
117.0950755653952,100.92220531033315,63.92094460587612,46566.66666666667
117.29663608562693,100.90241868223521,64.06744818212711,46600.0
117.16794859914127,101.0303339202422,63.828730732400466,46633.33333333334
117.08974063311965,101.03107175253294,63.86934796980459,46666.66666666666
117.20248143535817,100.97712282643788,64.06561812954507,46700.0
117.13900035361223,101.02464523469091,63.92097535476531,46733.33333333334
117.28642696073892,100.91902202452664,64.01129027275817,46766.66666666666
117.336985494669,100.9942195636003,63.836505083064715,46800.0
117.24236246254593,100.74521978191704,63.95060698730424,46833.33333333334
117.21158310656028,100.78320495672094,64.08020847746876,46866.66666666666
117.01083562901744,100.76129476584022,63.94543924089379,46900.0
117.16983471074379,100.55930517294156,64.20863177226813,46933.33333333333
117.02770827541471,100.41301393136257,63.768819695425215,46966.66666666667
117.04566210045662,100.3497686146088,63.94608182279416,47000.0
116.94526697723043,100.38429961717634,63.82022661931338,47033.33333333333
116.9431760527651,100.38426886828714,63.812032040342544,47066.66666666667
117.01514382792921,100.3184354965177,63.89299386559661,47100.0
116.9559675906708,100.3583014313608,63.74925818304814,47133.33333333334
117.00265977891549,100.29628092185172,63.9092446535369,47166.66666666666
116.95212397952123,100.35413495687469,63.767446151007796,47200.0
116.86342741564768,100.23312187796878,63.816784652630936,47233.33333333334
117.04695355380287,100.33673108558952,63.8819857632643,47266.66666666666
116.9746014175238,100.38343864827884,63.717540703842076,47300.0
117.05613209722799,100.37498270374985,63.820595605983726,47333.33333333334
116.64285823368613,100.24349047815396,63.67874650662024,47366.66666666666
117.20318865980968,100.41112802300016,64.07865565856433,47400.0
116.9677905385668,100.49033716157005,63.8701474409237,47433.33333333333
116.96914348969143,100.47634641698568,63.871192903156384,47466.66666666667
116.72393518730624,100.35285044516728,63.8534536735847,47500.0
116.83829793754406,100.46396065091477,63.836796297998845,47533.33333333333
117.16907276724629,100.5612902233907,64.04695355380287,47566.66666666667
116.89965063896295,100.51941405412032,63.876804265882136,47600.0
117.04383868100884,100.54747019705187,64.03268364438722,47633.33333333334
117.06291563237413,100.55104042168492,64.04642824308172,47666.66666666666
117.01248383720213,100.6060125608029,63.86330890954989,47700.0
117.15487038975431,100.60681300412537,64.02949325780432,47733.33333333334
116.95115074622292,100.72483221476507,63.94773375011492,47766.66666666666
117.17389631180343,100.73266732344068,64.02216612277569,47800.0
116.97894640066194,100.80867886365726,63.9482394042475,47833.33333333334
116.99151113971377,100.79540927339028,63.93831019582606,47866.66666666666
117.2357114400417,100.6827403389415,64.1785878459134,47900.0
117.1173223867288,100.71109881155544,63.92494196147165,47933.33333333333
116.84120584597059,100.41211954612787,63.999618209862405,47966.66666666667
116.90095308142564,100.4992798259324,63.92173086941865,48000.0
117.09768922097686,100.4100210629891,64.01066986455115,48033.33333333333
117.11330965668866,100.39885921621081,64.05302645941916,48066.66666666667
116.94688129391326,100.34773918792185,63.82271727933829,48100.0
117.08540503974295,100.24789754470119,63.951647371738694,48133.33333333334
116.95423027843121,100.28375074950418,63.78409667450764,48166.66666666666
117.02836585028366,100.20417262426396,63.92741724705196,48200.0
116.98181203204037,100.20497209538307,63.78163676337193,48233.33333333334
116.95381516842704,100.210522269883,63.7487200774872,48266.66666666666
117.0560244761158,100.13893885583384,63.93058438263918,48300.0
116.80399007079157,100.10603413931535,63.79717140142809,48333.33333333334
116.86154762450177,99.90189520624304,64.02373207495305,48366.66666666666
116.7889123839294,100.03590144341273,63.81041034599001,48400.0
116.88743832551869,100.01503171830471,63.88015997058013,48433.33333333333
116.90438540038612,99.99393215040912,63.90055468726058,48466.66666666667
116.80552235604179,100.05427354356287,63.7454720970856,48500.0
116.82158070546413,100.08908706444792,63.870491250651206,48533.33333333333
116.78347277129109,100.13122490882904,63.72299347246485,48566.66666666667
116.69000167987659,100.06902765687755,63.86338021716223,48600.0
116.65293749331869,100.12866327637023,63.75143934881874,48633.33333333334
116.66665139506115,100.1245093996732,63.749484583314235,48666.66666666666
116.7646340159741,100.13458865930576,63.90510224339885,48700.0
116.69611032207816,100.20427299522,63.819168919228474,48733.33333333334
116.65041095890408,100.13182648401826,63.91208523592085,48766.66666666666
116.7604343244605,100.30963180159132,63.848322414135396,48800.0
116.98127701165224,100.32559062934288,64.16972862357021,48833.33333333334
117.00015271605507,100.33464669140669,64.18374795742277,48866.66666666666
116.7496678425803,100.45291000442877,63.84152654968617,48900.0
116.81286174615538,100.45834669598815,63.898963057986286,48933.33333333333
116.7807913745972,100.50474183350893,63.83870130266795,48966.66666666667
116.84630656220888,100.51482109314152,64.00423023472457,49000.0
116.78158549808342,100.54792993387396,63.88221010674852,49033.33333333333
116.92417632702869,100.73552471018914,64.02008846857841,49066.66666666667
117.00399926450308,100.54756213416692,64.00597591247586,49100.0
116.90507492874872,100.54400723238638,63.84897796573811,49133.33333333334
117.14550374367727,100.47124210137908,63.94808050059193,49166.66666666666
117.03683716925728,100.46052611349415,63.78664883231093,49200.0
116.86508541793778,100.2688682123246,63.969341061622934,49233.33333333334
116.87904209884077,100.25564368517394,63.99665954850519,49266.66666666666
116.7399865158898,100.19855352272378,63.72241120406975,49300.0
116.96510986485242,100.01645674358738,63.99089822561368,49333.33333333334
116.90762167125808,100.17104377104376,63.90913682277319,49366.66666666666
116.65953177257522,99.93171176649435,63.92411067193676,49400.0
116.71902074435631,100.08802623550943,63.808846857840145,49433.33333333333
116.89585246403429,100.15563207835936,63.81265687174778,49466.66666666667
117.02009439908986,100.04370954599266,63.90512430238458,49500.0
116.93264462809921,100.13619528619527,63.86724823997552,49533.33333333333
116.81715985356924,100.04905430140327,63.84975594874925,49566.66666666667
116.93610380824992,100.12135049121349,63.694725028058365,49600.0
116.86430081824032,99.99492813582177,63.74815359627348,49633.33333333334
116.88319389537556,99.98725138671816,63.80241181698386,49666.66666666666
116.58678089827585,99.97849757945052,63.65211282662147,49700.0
116.81715240109101,100.03392479543993,63.76165302932794,49733.33333333334
116.5944472442388,100.0184786426597,63.683877766069536,49766.66666666666
117.2249588733607,100.2029426686961,64.04201835708685,49800.0
117.00519656227421,100.29924818965915,63.77465676552435,49833.33333333334
116.83000827434034,100.22435720633752,63.797891575495704,49866.66666666666
116.85570469798658,100.23705985106187,63.788513989764326,49900.0
117.00301339114124,100.35055271128333,63.81124794366804,49933.33333333333
117.12359516012484,100.34680134680134,63.94411389388559,49966.66666666667
116.79403021666513,100.4011982470657,63.76332322025068,50000.0
117.02853496917423,100.4508248389527,63.89786756453422,50033.33333333333
117.03496148701628,100.449933121166,63.932552311547745,50066.66666666667
117.00236766446811,100.51690420183573,63.79631935796319,50100.0
117.13529793346308,100.51780804991812,63.94254471318692,50133.33333333334
116.85763537740186,100.51547608102724,63.83829793754406,50166.66666666666
117.10187106990759,100.54699198991436,63.94751164614178,50200.0
116.85466274401642,100.47978915754958,63.83901811161165,50233.33333333334
116.83721001501641,100.45256044865313,63.77732830743771,50266.66666666666
117.2148578632597,100.37608966376092,64.08205341082054,50300.0
116.98025921313592,100.33351782666851,63.86246021862461,50333.33333333334
116.9482803683717,100.28046061836015,63.885983118859826,50366.66666666666
116.93267530710452,100.25666097812216,63.80754270251988,50400.0
117.0271512691604,100.19119659302307,63.89380871116032,50433.33333333333
117.03448487923374,100.1825407807143,63.90698461018096,50466.66666666667
116.73848487634459,100.10022677821705,63.759446538567616,50500.0
116.81234102540527,100.04111121326343,63.87524133492691,50533.33333333333
116.7282032423156,100.0937452116086,63.79053660629463,50566.66666666667
116.87113481045631,100.03113603628452,63.86739603444578,50600.0
116.7592320186326,100.07335049492814,63.7316662069811,50633.33333333334
116.74338818914528,100.07353436915815,63.715653826116274,50666.66666666666
116.8766510373571,100.01961325120286,63.82056939719897,50700.0
116.79864239526829,100.07733443657871,63.72110876160706,50733.33333333334
117.19846870531799,100.16576726165769,63.98447181095583,50766.66666666666
116.7751831080874,100.15022524593178,63.7324323496062,50800.0
116.81707578682848,100.17179982225493,63.761790935000455,50833.33333333334
116.82228555667923,100.1744353528853,63.78906561245442,50866.66666666666
116.77450890257731,100.18972755968252,63.751647206644,50900.0
116.90731206521406,100.17844994024088,63.85253286751862,50933.33333333333
116.81301523091535,100.27188869479944,63.790766449082156,50966.66666666667
116.91478961723514,100.30414329931659,63.904645888878676,51000.0
116.89776592810516,100.32988569152029,63.805966718764374,51033.33333333333
116.90525880297876,100.33351720756336,63.804572339186656,51066.66666666667
117.04710244859184,100.4084459562992,64.03266832153474,51100.0
116.96261223989458,100.45119671478042,63.89606509147743,51133.33333333334
116.87880453872116,100.43247659626455,63.99572395045891,51166.66666666666
116.78641132542265,100.495105450436,63.864433957942,51200.0
117.03834700142026,100.4699073013546,64.23715276186985,51233.33333333334
117.05667292802492,100.47528290649193,64.27921076342756,51266.66666666666
116.76490890487317,100.4825521907118,63.93340052839755,51300.0
116.82538446266857,100.39971900245872,64.08626929949146,51333.33333333334
116.84490208697252,100.42655756795685,63.90109098709816,51366.66666666666
116.92478011706659,100.23129845852104,64.06504550887193,51400.0
116.62105038102655,100.1387425360028,63.82581206762267,51433.33333333333
116.63135871474172,100.12162306623293,63.842839907759505,51466.66666666667
116.68470243276676,99.98089522151464,63.90591163849057,51500.0
116.56662237901071,99.98394954261542,63.78326537468885,51533.33333333333
116.64368290038333,99.86951940257481,63.85273590812602,51566.66666666667
116.831126842573,100.06119947289386,63.7793049554105,51600.0
116.76293577981652,99.83825688073395,63.89790519877676,51633.33333333334
116.78561162079512,99.81891437308869,63.92417431192661,51666.66666666666
116.58357462891279,99.81802249382791,63.67524154957482,51700.0
116.57161735220852,99.6867519290358,63.823500820219934,51733.33333333334
116.5625418569254,99.77831050228308,63.70365296803653,51766.66666666666
116.96362354815972,99.86506696086543,63.89845545646777,51800.0
116.950832526175,99.97726119643929,63.70135141368018,51833.33333333334
116.93112248820013,99.99340436326736,63.690527804683065,51866.66666666666
116.72352285395763,99.75592920083687,63.86223484674944,51900.0
116.62164597364121,99.81092225225638,63.75449366991952,51933.33333333333
116.65261678960309,99.87069531619859,63.71338250790306,51966.66666666667
116.62077549212748,99.90928666330693,63.6699958766665,52000.0
116.7249431132695,99.91345581160948,63.82933980849407,52033.33333333333
116.74022999037891,99.90672103358229,63.85937905652021,52066.66666666667
116.66008460469448,99.97620683862496,63.72818069363633,52100.0
116.68328217345491,100.021700951421,63.78714436248683,52133.33333333334
116.66179502451092,100.04050029779631,63.73488492845253,52166.66666666666
116.9064156014722,100.06200271834578,64.10592385577496,52200.0
116.6970724332249,100.19630121714695,63.81704616606344,52233.33333333334
116.6805027412532,100.20963332875185,63.848154426474856,52266.66666666666
116.77161313968935,100.24207021884209,63.91347108321498,52300.0
116.71205387822422,100.28571646737221,63.86174615537332,52333.33333333334
116.82952306776012,100.24976710801607,63.99793833325698,52366.66666666666
116.72509582932454,100.28058520792291,63.84499320413556,52400.0
116.90913548466179,100.22032729612944,63.992032116698844,52433.33333333333
116.92444301431156,100.20955533082035,64.00091937115013,52466.66666666667
116.62379927001726,100.08787281806936,63.769811090239926,52500.0
116.644431209053,99.94949680059864,63.83618148775981,52533.33333333333
116.64187429131808,99.96201464864698,63.66709570653672,52566.66666666667
116.71902485366677,99.81969599460636,63.77613312494254,52600.0
116.57951028163404,99.83675032944132,63.64363641935583,52633.33333333334
116.58593055683248,99.82996230578286,63.648738929239066,52666.66666666666
116.82858324905763,99.6199166436824,63.929147130029726,52700.0
116.65068493150685,99.60958904109587,63.71848855382918,52733.33333333334
116.7578836076124,99.54865005669457,63.81434831908308,52766.66666666666
116.49819031474779,99.50193185809624,63.65823674042852,52800.0
116.67318486882246,99.60997559487491,63.82905735204393,52833.33333333334
116.69253164169042,99.54483466642151,63.736967913946856,52866.66666666666
116.4220155464944,99.50005345061926,63.5595363540569,52900.0
116.48571341305113,99.48823322795928,63.69172737129856,52933.33333333333
116.59301403294693,99.69635448444171,63.73015558267236,52966.66666666667
116.53981453329278,99.58013073882636,63.82094861660079,53000.0
116.49290633924343,99.64301094974115,63.676944457170784,53033.33333333333
116.8403825161816,99.8124164014575,63.73583629291392,53066.66666666667
116.6836485661989,99.68370957901159,63.83982611348383,53100.0
116.54835753882809,99.67592125960199,63.638918159466115,53133.33333333334
116.47818485861963,99.7367284889024,63.80206749771967,53166.66666666666
116.43871997567648,99.78051079355428,63.71929157798722,53200.0
116.79603751034293,99.8883117281113,63.86014832521222,53233.33333333334
116.81565076154577,99.89128436149672,63.866185529098104,53266.66666666666
116.7628941803806,99.94971039808772,63.70668995740247,53300.0
116.67712771643684,99.85589713046532,63.80750141262351,53333.33333333334
116.7786767184579,100.02666176335389,63.71946921638932,53366.66666666666
116.67401230891404,99.8896015638124,63.72789053313175,53400.0
116.58974358974359,99.96009529481834,63.60228157786228,53433.33333333333
116.5701043050656,99.97176280142332,63.58908691070693,53466.66666666667
116.8490239342956,99.96299531120714,63.79824400110324,53500.0
116.72060310747447,99.97813428947931,63.65129784560694,53533.33333333333
116.61043661520137,99.7594111268918,63.72938715047113,53566.66666666667
116.53166567401232,99.75382171927737,63.616285640109346,53600.0
116.73742001496618,99.53730089644323,63.83954124097067,53633.33333333334
116.94348931997179,99.62186264595016,63.91737917930802,53666.66666666666
116.46268383195124,99.45162718956644,63.532352896259994,53700.0
116.54899894625922,99.41088254608208,63.64687466593363,53733.33333333334
116.6338451166069,99.51752934326254,63.54132573319849,53766.66666666666
116.85137741046832,99.60751453933271,63.84178145087236,53800.0
116.43197263328292,99.46929643713443,63.50156533956415,53833.33333333334
116.60529864239528,99.51392847292452,63.5041371701756,53866.66666666666
116.54553229180985,99.38449321177136,63.64024678914495,53900.0
116.4542691773186,99.43369832470488,63.55183946488295,53933.33333333333
116.50202348772926,99.44452589300714,63.62014935630183,53966.66666666667
116.61657626183693,99.5433636725813,63.54036039349085,54000.0
116.56744704570791,99.45072616484173,63.70932026083902,54033.33333333333
116.57230341625817,99.45955315282295,63.71741421175609,54066.66666666667
116.47945205479452,99.51740199447168,63.57312808295536,54100.0
116.8868867028286,99.6434065765683,63.880328521957644,54133.33333333334
116.68782752597224,99.67526278692041,63.6627286935736,54166.66666666666
116.73975667310226,99.69288406729795,63.741197021237475,54200.0
116.68471698691427,99.77677668474765,63.6131592657289,54233.33333333334
116.69570347215836,99.77651619625507,63.615963347736816,54266.66666666666
116.77354356286966,99.80901596641228,63.70512702644725,54300.0
116.72300879531734,99.85642487205419,63.63637338726977,54333.33333333334
116.8083417609022,99.88607459164598,63.78964788084951,54366.66666666666
116.5611704158458,99.86947358775828,63.67106488905178,54400.0
116.85207318194357,99.98915142042843,63.88307131255554,54433.33333333333
116.71295490294895,99.92680319481987,63.894366304729616,54466.66666666667
116.66379560483192,99.99462439486263,63.70148592721553,54500.0
116.71309234739849,99.97813106091844,63.73021181716834,54533.33333333333
116.65767169102487,99.94705334371805,63.657977123134955,54566.66666666667
116.95410805675584,99.84318592749226,63.919708252888356,54600.0
116.75294964910671,99.79600686463793,63.68844044007233,54633.33333333334
116.72483221476507,99.79078177193466,63.69467684104072,54666.66666666666
116.7946124850602,99.69124452208023,63.788314792681795,54700.0
116.89754470119769,99.79667297018896,63.747459373030146,54733.33333333334
116.7531335233367,99.60468572829521,63.67232079923998,54766.66666666666
116.87828052211614,99.66785049890072,63.641975308641975,54800.0
116.74878183322608,99.53095216205448,63.69142839631025,54833.33333333334
116.74818424197849,99.52450124115109,63.70587784621986,54866.66666666666
116.67805154607582,99.54256688425116,63.59394440869112,54900.0
116.78779381569672,99.4952192700193,63.665379547056475,54933.33333333333
116.51162932759121,99.48285762282188,63.556512576167144,54966.66666666667
116.60377819520168,99.41812128709093,63.721491730425605,55000.0
116.53088682213159,99.44623631282356,63.600403170385285,55033.33333333333
116.48740856126206,99.46201188130907,63.60990210900872,55066.66666666667
116.88313260396556,99.54210719867608,63.83489626428856,55100.0
116.63832256685144,99.5708678853408,63.616285640109346,55133.33333333334
116.7305783866058,99.59487062404871,63.82363774733638,55166.66666666666
116.7497442006078,99.66558238267592,63.69343779111498,55200.0
116.7332508666636,99.68827598845465,63.65976390097891,55233.33333333334
116.75982346024038,99.68201463019808,63.68393885249157,55266.66666666666
116.61246773873337,99.70678517432538,63.52317466135215,55300.0
116.70553290267408,99.68584780317957,63.735144545746095,55333.33333333334
116.60695468914648,99.75925841083674,63.60753501015562,55366.66666666666
116.76240436157052,99.758418472534,63.784868893266754,55400.0
116.64931812281424,99.85323987110763,63.64808112276844,55433.33333333333
116.64531696217225,99.854675402025,63.64314839419068,55466.66666666667
116.75096592904812,99.89560330477543,63.83482231486996,55500.0
116.67909775354684,99.97199187550586,63.67363051877643,55533.33333333333
117.22133411064405,100.13416280568256,64.10033444816054,55566.66666666667
116.57629564372075,100.05452943678232,63.72546934807704,55600.0
116.72215808979892,100.03695546509508,63.883802175101785,55633.33333333334
116.73516009478098,100.04679810438057,63.900009113554894,55666.66666666666
116.51871316604894,99.95835105413452,63.54945622455799,55700.0
116.74809741248094,99.9129223744292,63.77572298325722,55733.33333333334
116.82788285539965,100.10158633312996,63.76482611348384,55766.66666666666
116.90927394752899,99.91616839536304,63.79295302013423,55800.0
116.60006080875645,99.8055944055944,63.63794466403162,55833.33333333334
116.54872301611431,99.81360595925811,63.619990878686544,55866.66666666666
116.6469899665552,99.70188507145029,63.79755244755246,55900.0
116.54586500456064,99.73365764670113,63.68362724232289,55933.33333333333
116.64066585588324,99.64326543022194,63.794420796594714,55966.66666666667
116.51342353298875,99.69483125570082,63.63321678321678,56000.0
116.72052295530555,99.6276527820006,63.90650653694132,56033.33333333333
116.78126479436784,99.55932255157984,63.80177456055955,56066.66666666667
116.68267236119586,99.7248932275778,63.72072910311165,56100.0
116.92115090296907,99.78292011019285,63.8114172023263,56133.33333333334
116.85456075910622,99.81804407713499,63.71314661769208,56166.66666666666
116.92920110192837,99.81830425466794,63.837098255280075,56200.0
116.81776859504131,99.88085399449035,63.67610958065504,56233.33333333334
116.66127211714459,99.81288895668092,63.683160463697384,56266.66666666666
116.97078359351087,99.86983471074379,63.8295990205081,56300.0
116.8767217630854,99.94957147229874,63.69280685644321,56333.33333333334
117.00273951637587,99.95976430976431,63.84231711049893,56366.66666666666
116.88178757269668,100.05521885521885,63.69804101622284,56400.0
116.88860585723002,99.96798352654058,63.8553081147041,56433.33333333332
116.88023184868824,99.98444173276388,63.852150701647346,56466.66666666668
116.78393837705921,100.0589841366687,63.72646430750458,56500.0
117.05861805979255,100.10218120805372,64.02345942647956,56533.33333333332
116.72417148069323,100.09150197628458,63.72389784128914,56566.66666666668
116.92872178157411,100.25093044539356,63.82060707748628,56600.0
116.73060887891144,100.11291825109572,63.63032024556742,56633.33333333334
116.71993402666422,100.12576167132453,63.60695468914647,56666.66666666666
117.02892954552419,100.18234194477644,63.77974931813306,56700.0
116.7246071379484,100.10777172004092,63.66579618515295,56733.33333333334
117.11767599895454,100.13458788801256,63.84965330627431,56766.66666666666
116.82355735343693,100.07911188746895,63.73607918850173,56800.0
