B,G,R,Time[ms]
65.36275496688741,59.242569536423844,43.25841059602649,0.0
65.28001156312415,59.646983075791034,43.125696415431506,33.333333333333336
65.49597918637653,59.64146431199411,43.46975191842741,66.66666666666667
64.96644066014927,59.819588983496274,42.96215704824977,100.0
65.25446757069274,59.75704299379796,43.25633343845264,133.33333333333334
64.5555406601067,59.41810333270772,42.580180711585385,166.66666666666666
64.55972330214226,59.43695203367562,42.558677641633366,200.0
65.06747519880848,59.44626186866672,43.3036782893162,233.33333333333331
64.65627002777184,59.611621448408464,42.90456099124119,266.6666666666667
64.88302008204414,59.15644689921441,43.05710915087004,300.0
64.06530612244899,58.59706122448979,42.09518367346939,333.3333333333333
64.42739659103246,58.47847682119205,42.39884377374878,366.6666666666666
64.38106557377047,58.305,42.25489071038251,400.0
64.32539169762559,58.837075324395634,42.24818284606687,433.33333333333337
64.64333017975403,58.909014731720504,42.56640086498176,466.66666666666674
63.88650273224044,58.17431693989071,41.66013661202186,500.0
64.24920765027322,58.166830601092904,42.21674863387978,533.3333333333334
63.458524590163925,57.80008196721312,41.30390710382514,566.6666666666666
63.457213114754104,57.78035519125683,41.30841530054646,600.0
64.0631836734694,58.29404081632654,42.12979591836735,633.3333333333333
63.3969696969697,58.228760330578524,41.38911845730029,666.6666666666666
64.02487074829932,58.467265306122464,42.00949659863946,700.0
63.76217687074831,58.47608163265306,41.78024489795919,733.3333333333333
64.32137096774194,58.521155913978504,42.18706989247312,766.6666666666667
64.42605746635334,58.68332087160863,42.394466994232005,800.0
64.17744054481594,58.708636083331086,42.19647692843928,833.3333333333335
63.872839337077124,57.90302698260514,41.76863443363923,866.6666666666667
63.88271402848257,58.257679925792544,41.86656299448901,900.0
65.14894013138647,59.25761323439453,43.64342136758956,933.3333333333336
64.88659602649007,59.36103311258278,43.21984105960264,966.6666666666664
64.76864,59.18650666666666,43.03469333333333,1000.0
65.06002656042497,58.98260292164674,43.37227091633466,1033.3333333333335
64.84465863453815,59.02281124497993,43.028139223560906,1066.6666666666667
65.35832669322708,59.38082337317397,43.6340770252324,1100.0
65.21415431514771,59.430910333228205,43.31811731315042,1133.3333333333333
65.63373173970784,59.28029216467464,43.543452855245675,1166.6666666666667
65.7,59.364,43.60754666666666,1200.0
65.23504,59.47994666666666,43.07349333333333,1233.3333333333335
65.16405298013245,59.15186754966886,43.203417218543045,1266.6666666666665
64.44231182795697,58.61650537634409,42.39629032258065,1300.0
64.820188172043,58.615887096774216,42.79545698924731,1333.3333333333333
64.14748731379932,58.11150215529001,42.25132318437279,1366.6666666666667
64.15706334915699,58.09750641130572,42.309134064495005,1400.0
64.23268027210885,57.89009523809524,42.37126530612245,1433.333333333333
64.16018890457062,58.29790467918793,42.23075670394093,1466.6666666666665
64.37102311123125,58.27457764562779,42.3458034869577,1500.0
64.05020576131687,58.33615912208505,41.747379972565156,1533.3333333333335
64.32499185756161,58.38711866246879,42.20079253066985,1566.666666666667
64.34659646075345,58.381608945825654,42.25610682879167,1600.0
64.33804081632654,58.50269387755103,42.16201360544217,1633.333333333333
65.51564836573382,59.25453962828456,43.841673787652205,1666.666666666667
64.74027401667693,58.920127624205705,42.94031691556962,1700.0
64.98141900937081,58.93700133868808,43.0558500669344,1733.3333333333335
64.81021505376344,59.211962365591404,43.03395161290322,1766.6666666666665
64.75175368139223,59.13676037483266,42.936224899598386,1800.0
64.90696,58.92272,43.15669333333334,1833.333333333333
64.41690666666666,58.84402666666666,42.73464,1866.666666666667
64.49977209963268,58.94482129930022,42.93144220714802,1900.0
63.945668016194325,58.51978407557355,42.208933873144396,1933.333333333333
64.58472299795207,59.06798053139711,43.244235219021775,1966.6666666666665
64.58935078060587,59.07574669539082,43.24035213702492,2000.0
64.05893235380861,58.66431616483899,42.63830871115639,2033.333333333333
64.05930107526882,58.24295698924731,42.50336021505376,2066.666666666667
63.76430107526882,58.336720430107526,42.13620967741935,2100.0
64.04107526881721,58.19069892473118,42.430887096774185,2133.333333333333
63.680725806451605,58.23338709677419,41.95623655913978,2166.6666666666665
63.69548387096774,58.21013440860215,41.973440860215064,2200.0
63.64350877192982,57.79192982456141,41.85076923076923,2233.333333333333
63.75042725913265,58.48055970946379,42.34792245246742,2266.6666666666665
64.27754666666667,58.56768,42.72522666666666,2300.0
63.66171352074966,58.314270414993295,41.769397590361436,2333.333333333333
64.2124238410596,58.91046357615893,42.61139072847682,2366.6666666666665
64.26055629139073,58.89364238410596,42.63414569536424,2400.0
63.6198215681518,58.53451389450419,41.75636775289076,2433.333333333333
64.16677333333334,58.50376,42.479733333333336,2466.666666666667
63.90794666666667,58.5044,42.13597333333333,2500.0
64.19890227576974,58.63780455153949,42.430227576974566,2533.333333333333
63.5536559139785,58.30274193548386,41.72266129032258,2566.666666666667
63.87930388219544,58.68540829986613,42.15635876840696,2600.0
63.81543010752689,58.32607526881721,42.14701612903226,2633.333333333333
63.37833333333333,58.36887096774194,41.73822580645161,2666.6666666666665
63.4723076923077,57.882429149797574,41.625290148448045,2700.0
63.268048780487796,57.935663956639566,41.427994579945796,2733.333333333333
63.32680327868852,57.620901639344254,41.35863387978142,2766.666666666666
63.33762295081967,57.62647540983608,41.369289617486345,2800.0
62.94139344262296,57.76939890710383,40.90661202185792,2833.333333333333
63.04210382139435,57.46612792768114,40.94641829886317,2866.666666666666
62.879590163934424,57.79202185792349,41.00937158469945,2900.0
63.8847468489639,58.60430463576159,42.1790215765862,2933.333333333333
63.48227046708149,58.21696600820585,41.54816183463304,2966.666666666667
63.476401380322244,58.222563377985495,41.522049832894055,3000.0
63.79213574366746,58.090631088980295,41.88474236847802,3033.333333333333
63.14634676520936,57.76433986359808,41.189223704589295,3066.666666666667
63.50849462365591,57.94185483870968,41.73204301075269,3100.0
63.245587044534425,57.985344129554655,41.357894736842105,3133.333333333333
63.99747311827957,58.26771505376344,42.057043010752686,3166.666666666666
64.02725806451613,58.252768817204284,42.08456989247311,3200.0
63.643864749905774,58.22330802778228,41.64004199644645,3233.333333333333
63.92545630754322,58.186453453938505,42.35710439885856,3266.666666666666
64.11395018366088,58.594015604472204,42.44386948011904,3300.0
64.14864466310964,58.26106657371906,42.341019384937134,3333.333333333333
63.81970310391363,58.190391363022954,41.71522267206477,3366.666666666666
63.82623481781378,58.19217273954117,41.709176788124154,3400.0
64.37813333333334,58.46933333333333,42.27528,3433.333333333333
64.2797311827957,58.6325,42.1939247311828,3466.666666666667
64.58045515394913,58.63360107095047,42.41764390896921,3500.0
64.47857655788718,58.8007925742706,42.58629218862203,3533.333333333333
64.93238624225593,58.814809869685966,43.25200277718437,3566.666666666667
64.9377803888058,58.8533700064089,43.27552873317667,3600.0
64.5110298102981,58.90726287262873,42.65943089430894,3633.333333333334
64.77782525101475,58.88415936765649,43.313982055116426,3666.666666666666
64.86490066225166,59.17650331125828,43.183708609271534,3700.0
65.13764238410596,59.27369536423841,43.372927152317885,3733.333333333334
64.9194925396952,59.39759036144578,42.955796696720654,3766.666666666666
64.83698013245032,59.348397350993366,42.88519205298013,3800.0
65.16950993377482,59.25875496688742,43.301801324503316,3833.333333333334
64.45908602150537,58.776397849462356,42.30653225806451,3866.666666666666
64.81155913978496,58.68056451612904,42.6944623655914,3900.0
64.0890959976089,58.0605113713556,41.710974648805795,3933.333333333333
64.8389247311828,58.79795698924731,42.68043010752688,3966.666666666667
64.8359946236559,58.81962365591397,42.68508064516129,4000.0
64.64548387096774,58.918575268817214,42.317526881720426,4033.333333333333
65.18309139784947,58.91758064516129,42.968575268817204,4066.666666666666
64.55287074829933,58.84348299319728,42.195374149659855,4100.0
65.17619433198381,59.112631578947365,42.94987854251012,4133.333333333334
65.08781564636838,59.49954234641685,42.9506003338179,4166.666666666667
64.86249795383861,59.13220930867027,42.57085174878596,4200.0
65.43084337349397,59.43983935742971,43.379866131191434,4233.333333333333
65.21317204301076,59.51182795698925,43.10862903225807,4266.666666666667
65.61016129032258,59.57435483870968,43.54013440860215,4300.0
64.88457994579946,59.440487804878046,42.76162601626016,4333.333333333333
65.1609756097561,59.4639024390244,43.057262872628726,4366.666666666666
65.08984012658918,59.29942161837726,42.85704152343537,4400.0
65.30118279569892,59.8194623655914,43.13870967741936,4433.333333333334
65.51263801688678,59.509985927689975,43.439353756224286,4466.666666666667
64.91747955329728,59.25209901366736,42.57805070238839,4500.0
65.68312,59.64098666666666,43.37682666666666,4533.333333333333
65.2034260662481,59.52005304178393,42.92579562675904,4566.666666666666
64.8778360459745,59.134934652066406,42.5346031573513,4600.0
65.15639207620697,59.01309807317601,42.842471314137256,4633.333333333334
64.89521541459189,59.123051526304394,42.86038644728296,4666.666666666667
65.68938081835897,59.535613769214116,43.610305260878974,4700.0
65.21934718740735,59.571952238484144,43.055389342605324,4733.333333333333
65.59013333333333,59.67373333333333,43.51402666666666,4766.666666666667
65.61224,59.67994666666666,43.54917333333334,4800.0
65.231988356109,59.6078003288321,43.259669550685956,4833.333333333333
65.32443548387097,59.41252688172043,43.293064516129036,4866.666666666666
65.2413654618474,59.72270414993306,43.64372155287817,4900.0
65.24609986504724,59.36442645074224,43.62229419703104,4933.333333333334
64.51790476190476,59.0131156462585,42.77499319727893,4966.666666666667
64.05388381560128,58.44845417537682,42.16101881395093,5000.0
65.0551157375702,58.857197644158354,43.00586221065608,5033.333333333333
64.58553622791399,59.09721955896453,42.43224215860841,5066.666666666666
64.87461991508013,59.00323243391318,42.81495685522531,5100.0
64.57740125426339,59.15543514137969,42.792331389591816,5133.333333333334
64.87294701806078,58.77833251486877,42.97560975609756,5166.666666666667
65.23680134771622,59.169578566964645,43.41719425046871,5200.0
64.63583070812219,58.92151760032872,42.53784413094097,5233.333333333333
65.79851551956816,59.89954116059378,43.85973009446693,5266.666666666667
65.0654693877551,59.72786394557824,43.04851700680273,5300.0
65.10817813765182,59.662645074224024,43.050715249662616,5333.333333333333
65.00533875338753,59.67382113821138,42.83880758807588,5366.666666666666
64.9448238482385,59.685040650406506,42.82940379403794,5400.0
65.22658602150537,59.41126344086022,43.321290322580644,5433.333333333334
64.96344086021506,59.30188172043011,43.031048387096774,5466.666666666667
65.02178501840226,58.89093959731544,43.06392076206971,5500.0
64.59251772189428,58.95843777795747,42.60478154227649,5533.333333333332
65.3779621798452,59.19005824622995,43.442618154738156,5566.666666666666
65.26722891566264,59.02216867469879,43.29244979919679,5600.0
65.07087160863064,59.30514313180944,43.0743964964751,5633.333333333334
65.24337748344371,59.167645802179024,43.77793206579791,5666.666666666668
65.55560539299755,59.872694651856136,43.949394475079814,5700.0
65.44093333333333,59.49685333333333,43.648666666666664,5733.333333333332
64.92666666666666,59.218575268817204,42.87559139784946,5766.666666666668
65.26254350736278,59.59566265060241,43.284551539491304,5800.0
65.28922043010753,59.04612903225807,43.22056451612904,5833.333333333332
64.63425101214575,58.79249662618084,42.48785425101215,5866.666666666666
64.89168690958165,58.812226720647786,43.01117408906882,5900.0
64.66269905533063,58.80771929824562,42.70615384615385,5933.333333333334
65.0038596491228,58.774143049932526,43.05892037786774,5966.666666666668
65.38747311827957,59.16502688172043,43.51827956989247,6000.0
64.61365853658536,58.997154471544725,42.539593495934966,6033.333333333332
64.8393626889289,58.80310470889944,42.74646696131391,6066.666666666666
64.53418453647623,58.91714410432695,42.22941561630381,6100.0
64.79955438415347,58.72822867701002,42.556014455343316,6133.333333333334
64.9727665317139,59.41508771929825,42.69881241565452,6166.666666666668
65.00461538461539,59.40207827260459,42.70588394062079,6200.0
65.65871485943775,59.69186077643909,43.39228915662649,6233.333333333332
64.89063427800271,59.44955465587046,42.69919028340081,6266.666666666668
64.93837951937648,59.13801688677203,42.679178393591684,6300.0
64.66708161939813,59.089142671573924,42.381630222992,6333.333333333332
64.98887746265426,59.01353106733059,42.71717363065599,6366.666666666666
65.01537129248753,59.02308400086599,42.71081402901061,6400.0
64.6914375405932,58.854486901926826,42.28366529551851,6433.333333333334
65.03363790733404,58.698525646209,42.76863157327296,6466.666666666668
64.5433535397272,58.88244208703183,42.21544165403767,6500.0
65.14445637583893,59.09624161073826,43.065342281879204,6533.333333333332
65.12115127175367,59.49421686746988,42.892797858099065,6566.666666666666
65.10374832663989,59.4922891566265,42.87724230254351,6600.0
64.97364148084,58.73893158692358,42.68924550768565,6633.333333333334
64.56760121238364,58.78288049361333,42.37881576098722,6666.666666666668
64.65688947643835,58.484810928419954,42.62251783304415,6700.0
64.25473222846186,58.536693603615944,42.25385563621422,6733.333333333332
64.5716161505635,58.63683116314695,42.7508206587154,6766.666666666668
64.54667066259809,58.534873583260676,42.69785309503053,6800.0
64.30066199803042,58.49179341284604,42.83108108108108,6833.333333333332
64.52345003041867,58.45677783308445,42.86463691167524,6866.666666666666
64.28259142583208,58.38726201890152,42.399972606492256,6900.0
64.72442131214902,58.39591836734694,42.8862895493768,6933.333333333334
64.20775236269004,58.51768250924531,42.300315025338996,6966.666666666668
64.3387755102041,58.68748299319728,42.501768707483,7000.0
64.49086047907457,58.38085884214547,42.6304086866372,7033.333333333332
64.08801534036434,58.57657855088347,42.53762498287906,7066.666666666666
64.24761281169859,58.558602062530696,42.82804059584221,7100.0
63.6907399202481,58.151500886132034,41.88394439521488,7133.333333333334
64.53121490206821,58.6867826325161,42.62758526229284,7166.666666666668
64.54589782221613,58.69176825092453,42.616983974797975,7200.0
63.82022224667181,58.204863021234466,41.849323357905156,7233.333333333332
64.90779569892472,58.99309139784946,43.00685483870968,7266.666666666668
65.18720004289891,59.63163257098426,43.37472182749283,7300.0
65.10132182213046,59.30439445531812,43.12872348982491,7333.333333333332
64.8269918699187,59.26718157181572,42.66149051490515,7366.666666666666
64.82623306233064,59.28831978319784,42.62165311653117,7400.0
65.11661246612466,59.23406504065041,43.272845528455285,7433.333333333334
63.89707666850524,58.46254826254828,41.90689464975177,7466.666666666668
64.41089649151525,58.5330932503956,42.44723631800076,7500.0
64.42346828317818,58.844933968391416,42.34942628274519,7533.333333333332
65.2196812749004,59.13907038512615,43.34812749003984,7566.666666666666
65.26419654714475,59.12403718459497,43.361035856573714,7600.0
65.13615894039735,59.40688741721854,43.21213245033113,7633.333333333334
64.89201612903226,59.03131720430108,43.02430107526881,7666.666666666668
64.67083333333333,59.02048387096775,42.644462365591394,7700.0
64.66520325203253,58.67132791327914,42.59246612466124,7733.333333333332
64.08781420765027,58.33931693989071,42.01964480874317,7766.666666666668
64.00324568159314,58.13156012762681,41.85196391242161,7800.0
64.33870612828693,58.16112883705578,42.28284189679833,7833.333333333332
64.13458723451268,58.27505730936007,42.11867870853703,7866.666666666666
64.66263429723534,58.21393653160991,42.5420774988262,7900.0
63.90320885200554,58.17723374827109,41.7716182572614,7933.333333333334
65.27324610994454,59.24686372691541,43.48425133257955,7966.666666666668
65.34167878102622,59.23846443762452,43.587627200775316,8000.0
64.40892517006803,58.79178231292518,42.44753741496599,8033.333333333332
64.69696476964768,58.785420054200536,42.652059620596205,8066.666666666666
63.96457256023765,58.41035867532182,41.62473869512598,8100.0
64.78582655826558,58.860677506775076,42.82712737127371,8133.333333333332
64.27840755735492,58.908906882591104,42.263238866396755,8166.666666666666
64.28172739541161,58.90785425101215,42.28148448043185,8200.0
65.42275060506928,59.708635867975204,43.537780260113294,8233.333333333332
65.35967388723252,59.90026648373394,43.51737421176222,8266.666666666668
65.92200147167034,59.67862398822664,43.929675181330815,8300.0
65.09546666666667,59.44021333333333,42.94968,8333.333333333334
65.64736278447121,59.460481927710845,43.415153949129845,8366.666666666668
65.52491846580955,59.279615104714146,43.21950890811569,8400.0
65.20117804551539,59.51769745649264,42.951298527443114,8433.333333333334
65.43132530120482,59.45761713520749,43.344899598393575,8466.666666666666
65.19194109772423,59.4980187416332,42.941874163319945,8500.0
65.53858099062919,59.588701472556885,43.288701472556895,8533.333333333334
64.87628725919083,59.197266527185285,42.67970002445453,8566.666666666666
64.97881241565453,59.35322537112011,42.85605937921728,8600.0
65.53377354405715,59.46687594717472,43.50221909504221,8633.333333333332
65.30301075268817,59.65255376344086,43.12967741935484,8666.666666666666
65.3888888888889,59.360460704607036,43.17544715447154,8700.0
65.06864498644987,59.512953929539286,42.687859078590776,8733.333333333332
65.31711201079622,59.37730094466937,43.19673414304994,8766.666666666668
65.33723577235773,59.47051490514905,43.274065040650406,8800.0
64.75765027322404,59.00196721311474,42.69898907103825,8833.333333333334
64.97008196721312,59.04827868852459,43.16603825136612,8866.666666666668
63.68190082644629,58.32928374655647,41.72914600550964,8900.0
64.48384087791496,58.66351165980796,42.450644718792866,8933.333333333334
63.86462809917357,58.40104683195592,41.68889807162535,8966.666666666666
63.86181818181819,58.393168044077136,41.689008264462814,9000.0
64.30465564738292,58.26801652892562,42.03170798898072,9033.333333333334
64.42140495867768,58.817933884297524,42.163443526170795,9066.666666666666
64.80525955348583,58.75858101629914,42.60112313381729,9100.0
64.7054693877551,59.06780952380953,42.37118367346939,9133.333333333332
64.93929539295392,59.066178861788615,42.57859078590785,9166.666666666666
64.9229810298103,59.073821138211386,42.630054200542006,9200.0
64.60197031039137,59.03427800269906,42.208987854251006,9233.333333333332
65.46073033857283,59.91385409186414,43.40548950769967,9266.666666666668
65.50929801324503,60.099867549668865,43.46924503311257,9300.0
65.82770903142396,60.02992005487982,43.87781325031001,9333.333333333334
64.75168690958165,59.398056680161936,42.656275303643724,9366.666666666668
65.09026881720429,59.784274193548384,43.05465053763441,9400.0
65.39261044176706,59.585488621151285,43.36315930388219,9433.333333333334
65.03360215053763,59.664139784946244,43.10416666666666,9466.666666666666
65.35448460508701,59.60265060240964,43.410040160642566,9500.0
65.11954484605086,59.63410977242302,43.048406961178046,9533.333333333334
65.35709333333334,59.65485333333334,43.3724,9566.666666666666
65.087311827957,59.331962365591394,43.07704301075269,9600.0
64.69852150537635,59.44706989247312,42.56787634408602,9633.333333333332
65.3922891566265,59.69983935742972,43.32827309236948,9666.666666666666
65.23443548387097,59.81615591397849,42.99680107526882,9700.0
65.52607526881721,59.81887096774194,43.435483870967744,9733.333333333332
65.309103965531,59.761110667836896,43.280087236362675,9766.666666666668
65.37366481521042,59.831179235206136,43.33262123477889,9800.0
65.83704,59.79728000000001,44.03074666666666,9833.333333333334
65.57742539774675,60.201366718556244,43.8956228067861,9866.666666666668
65.75120529801325,59.98087417218543,43.962384105960254,9900.0
65.25271753681392,59.972208835341355,43.438366800535476,9933.333333333334
65.26642666666666,59.51581333333333,43.32898666666666,9966.666666666666
65.35038821954484,59.595341365461856,43.43354752342704,10000.0
65.18569892473118,59.67741935483871,43.07983870967742,10033.333333333334
65.47464028298624,59.72640229793346,43.545573020559054,10066.666666666666
65.27194872204048,59.65291630096545,43.265299609032155,10100.0
65.38945113788489,59.570763052208825,43.38912985274431,10133.333333333332
64.85569884977343,59.46936750945116,42.93541035472022,10166.666666666666
64.73201079622133,59.32815114709853,42.72709851551957,10200.0
65.10936536450653,59.555245730219575,43.177413733008,10233.333333333332
64.45143487858721,59.14887201852151,42.37516825499381,10266.666666666668
64.91352150537635,59.34965053763441,43.07284946236559,10300.0
65.03618543046358,60.277960264900656,43.45523178807947,10333.333333333334
65.56086842105263,60.2743947368421,44.081263157894746,10366.666666666668
65.57881578947371,60.271210526315784,44.146,10400.0
65.0357829523606,59.84543900875881,43.257904293954276,10433.333333333334
65.31595716198126,59.48246318607765,43.38599732262382,10466.666666666666
65.08153225806451,59.75685483870968,42.92263440860215,10500.0
65.73839740376242,60.1770137991082,43.570961188359135,10533.333333333334
65.1346184738956,59.8209906291834,42.858714859437754,10566.666666666666
65.08910307898259,59.82610441767068,42.8623828647925,10600.0
65.43855421686746,59.75633199464525,43.17480589022757,10633.333333333332
65.48469333333334,60.058613333333334,43.10890666666667,10666.666666666666
65.37341365461847,59.666559571619814,43.3134939759036,10700.0
64.91501576776906,59.365623568097895,43.014527910298916,10733.333333333332
65.05231110630007,59.010933102403115,43.08611171249189,10766.666666666668
65.06381251353106,59.02652089196796,43.10749079887422,10800.0
64.43185864950007,58.825996438844,42.20890289001507,10833.333333333334
64.75821138211383,58.804390243902425,42.68224932249323,10866.666666666668
63.966114230927275,58.409067251061494,41.82440761539515,10900.0
64.6572543242211,58.61526709226824,42.62088721558357,10933.333333333334
64.17806802721088,58.50119727891157,42.04974149659864,10966.666666666666
64.08802721088436,58.503428571428564,41.97657142857143,11000.0
64.48056910569106,58.24620596205962,42.37582655826558,11033.333333333336
63.86825788751714,58.022112482853224,41.74065843621399,11066.666666666664
64.46715646258504,58.43303401360544,42.29855782312925,11100.0
64.24672131147541,58.57601092896175,41.98467213114754,11133.333333333332
64.17677685950413,58.30906336088154,42.107548209366385,11166.666666666664
64.19533607681755,58.24,42.14447187928669,11200.0
63.69216262687892,58.28476343668535,41.418880692218096,11233.333333333332
64.14429530201343,58.10089300571303,41.95149481391093,11266.666666666668
64.07343724000222,58.59687170669479,41.87264962005657,11300.0
64.39179698216735,58.58644718792868,42.72186556927298,11333.333333333336
63.904972677595644,58.722322404371575,42.250765027322394,11366.666666666668
63.921557377049176,58.71338797814207,42.24319672131148,11400.0
65.25806451612904,59.69185483870968,43.54795698924731,11433.333333333336
65.01540322580645,59.81836021505378,43.03524193548387,11466.666666666664
65.33416331994646,59.58372155287818,43.300107095046855,11500.0
64.71249662618084,59.107476383265855,42.90078272604588,11533.333333333336
65.41181333333333,59.30498666666666,43.54336,11566.666666666664
65.29669798657719,59.14453691275168,43.33173154362417,11600.0
65.29266932270916,59.788021248339966,43.3329614873838,11633.333333333332
65.60602666666666,59.9296,43.64821333333333,11666.666666666664
65.04010709504685,59.64401606425702,42.901285140562244,11700.0
65.57160264900662,59.670145695364226,43.69035761589405,11733.333333333332
65.1491935483871,59.80960264900661,43.23787652211065,11766.666666666668
65.16254539628285,59.80605105746636,43.289788506729316,11800.0
65.20881036008258,59.39013861704694,43.18274928278414,11833.333333333336
65.2512832788106,59.779621798452084,43.18686667198595,11866.666666666668
65.39793010752689,59.60059139784946,43.42809139784946,11900.0
65.06008064516128,59.741209677419356,43.056182795698916,11933.333333333336
65.3924765729585,59.65333333333333,43.39986613119142,11966.666666666664
65.424953145917,59.66275769745649,43.41360107095047,12000.0
65.10564926372155,59.69633199464526,42.91493975903615,12033.333333333336
65.63048468378143,60.145457903485394,43.714202791483075,12066.666666666664
65.33077333333334,60.05813333333333,43.25061333333333,12100.0
65.54893303899927,60.1486649847577,43.57374119625776,12133.333333333332
65.15519379435898,60.282419988918505,43.27418801614733,12166.666666666664
65.15495633360597,60.279992612332116,43.25693253476161,12200.0
65.57584105960265,60.22664900662252,43.77981456953642,12233.333333333332
65.21271523178808,60.149350993377475,43.456556291390726,12266.666666666668
65.39067591716598,60.00520340586566,43.77864501208872,12300.0
65.0982426865516,60.23765448193149,43.738801689523896,12333.333333333336
65.65266266058848,60.39136966431828,44.345809158723576,12366.666666666668
65.50872490276464,60.116314516976786,44.07639545884579,12400.0
65.07443569553806,60.1338845144357,43.474750656167984,12433.333333333336
65.38396825396826,59.8523544973545,43.66978835978836,12466.666666666664
65.17840637450199,59.986108897742355,43.32334661354581,12500.0
65.28026666666666,59.53002666666666,43.29477333333333,12533.333333333336
65.00398929049531,59.62907630522089,42.94476572958501,12566.666666666664
64.97060240963857,59.64200803212852,42.88597054886211,12600.0
65.03405913978494,59.3408870967742,42.705,12633.333333333332
64.79962213225372,59.45584345479082,42.518650472334684,12666.666666666664
65.08467741935483,59.03223100238146,42.800443819008436,12700.0
64.80223118279571,59.292123655913976,42.45755376344086,12733.333333333332
65.40528,59.53776,43.29712,12766.666666666668
65.05713520749666,59.17799196787149,42.90757697456493,12800.0
64.81836021505376,59.18034946236559,42.604838709677416,12833.333333333336
65.46242666666667,59.542559999999995,43.40485333333334,12866.666666666668
64.85908602150539,59.32483870967742,42.87139784946237,12900.0
65.22434547908232,59.35883940620783,43.28002699055331,12933.333333333336
65.22546184738954,59.758527443105756,43.14736278447122,12966.666666666664
65.16429333333333,59.71005333333334,43.107413333333334,13000.0
65.10607526881722,59.3667741935484,42.97701612903226,13033.333333333336
64.87220430107527,59.318548387096776,42.57217741935485,13066.666666666664
65.29522267206478,59.3004318488529,43.074439946018884,13100.0
64.65153741496599,59.04772789115646,42.273387755102036,13133.333333333332
64.99981029810299,58.96845528455285,42.724634146341465,13166.666666666664
65.00067750677506,58.99547425474255,42.74051490514905,13200.0
64.20879781420766,58.64109289617486,41.98284153005464,13233.333333333332
64.55591220850481,58.62334705075446,42.37360768175583,13266.666666666668
64.10514541387025,58.430027342779034,41.9147126246306,13300.0
64.53168724279836,58.630919067215366,42.55536351165981,13333.333333333336
64.15676268861453,58.78104252400549,42.30257887517147,13366.666666666668
64.19026063100137,58.7873525377229,42.3279561042524,13400.0
64.60886786225107,59.056029266145885,43.1679227637804,13433.333333333336
64.60013495276654,59.66410256410256,43.16580296896087,13466.666666666664
65.4694071396533,60.191709981266975,44.153689876256564,13500.0
64.86982597054886,59.74982597054886,43.17914323962517,13533.333333333336
65.47804956205938,60.00280388805811,43.64759132663961,13566.666666666664
65.35815261044176,59.762543507362786,43.44886211512719,13600.0
64.8961133603239,59.487233468286114,42.71975708502024,13633.333333333332
65.38456140350878,59.31365721997301,43.17757085020243,13666.666666666664
64.89892037786774,59.2668286099865,42.65986504723347,13700.0
65.56212365591398,59.60879032258065,43.30400537634409,13733.333333333332
65.02336043360434,59.43149051490515,42.53189701897019,13766.666666666668
64.98582995951418,59.361187584345465,42.466855600539816,13800.0
65.61807228915664,59.52243641231593,43.28297188755021,13833.333333333336
65.23638554216869,59.56875502008032,42.836947791164654,13866.666666666668
65.56610666666667,59.538000000000004,43.32946666666667,13900.0
65.27783132530121,59.733413654618474,43.16026773761713,13933.333333333336
65.46315930388221,59.80232931726908,43.49065595716198,13966.666666666664
65.32481604269427,59.626263443033885,43.302579445297965,14000.0
64.94571574890165,59.70119403789656,42.92280531522061,14033.333333333336
65.27249939354735,59.64211207245089,43.27387401956821,14066.666666666664
64.6445126755971,59.373094584680594,42.51830013857565,14100.0
65.20680161943321,59.537975708502024,43.208609986504726,14133.333333333332
64.77004048582997,59.48448043184885,42.81263157894737,14166.666666666664
64.76075573549258,59.49894736842106,42.80304993252362,14200.0
65.02846774193549,59.40758064516128,43.17803763440861,14233.333333333332
64.75206989247312,59.4269623655914,42.72854838709677,14266.666666666668
64.9316631796321,59.251148004238786,43.0638534902046,14300.0
64.8468286099865,59.428933873144395,42.84569500674764,14333.333333333336
64.88962059620596,58.961246612466134,43.036341463414644,14366.666666666668
64.95651700680273,59.019755102040826,43.10380952380952,14400.0
64.16897285055376,58.61297539149889,42.22531554671749,14433.333333333336
64.74457994579946,59.13105691056911,42.91292682926829,14466.666666666664
64.35750532001964,58.88263218202652,42.36274349320674,14500.0
64.5508266492061,58.84776559174989,42.62405194521744,14533.333333333336
65.02859437751003,59.66626506024097,43.19330655957162,14566.666666666664
65.01100401606425,59.692128514056215,43.15226238286479,14600.0
65.27615176151761,59.344010840108396,43.359268292682934,14633.333333333332
65.00182061579653,59.67443105756359,42.96085676037483,14666.666666666664
65.30066934404283,59.628862115127184,43.27635876840697,14700.0
65.01587684069611,59.67164658634539,43.008755020080315,14733.333333333332
65.38492637215529,59.645756358768395,43.28805890227577,14766.666666666668
65.4152610441767,59.64835341365461,43.31769745649265,14800.0
65.10666666666667,59.59013333333333,42.885493333333336,14833.333333333336
65.54966887417218,59.58402152977493,43.375557373156376,14866.666666666668
65.63272736867101,59.968813487770774,43.477058652805994,14900.0
65.51663608074682,59.7430516769063,43.556344583632544,14933.333333333336
65.06053547523427,59.603855421686745,42.971539491298536,14966.666666666664
65.0475234270415,59.605676037483256,43.02610441767068,15000.0
65.12156545209177,59.224534412955464,43.162537112010796,15033.333333333336
65.15481182795699,59.75365591397849,43.119086021505375,15066.666666666664
65.20356275303644,59.502213225371115,43.032955465587044,15100.0
64.95120218579235,59.735218579234974,42.74404371584699,15133.333333333332
64.17280774550484,58.50298755186722,41.953914246196405,15166.666666666664
64.19781466113416,58.52008298755186,42.017648686030434,15200.0
63.67232035045351,58.0669175254837,41.25056864451995,15233.333333333332
63.883406812501754,58.0372076043919,41.64878829575132,15266.666666666668
63.50978630198534,58.002021847182036,41.53654769593665,15300.0
63.671232492997206,57.72672268907563,41.66364145658263,15333.333333333336
63.30257703081233,57.80915966386555,41.175154061624646,15366.666666666668
63.25347280334729,57.76443514644352,41.089930264993036,15400.0
63.71304275541024,57.77738369032114,42.01343899803264,15433.333333333336
63.16812505309659,57.47605697618441,41.26035737547079,15466.666666666664
63.625994397759115,57.65126050420168,41.550840336134456,15500.0
63.04368495077356,57.2684388185654,40.815105485232074,15533.333333333336
63.40670574575935,57.01175204598872,41.21281114603687,15566.666666666664
63.45490329340468,57.00795740945261,41.264718375669005,15600.0
62.88001585818254,57.07750686715939,40.9383229971965,15633.333333333332
63.430911962100275,57.327420901246406,41.926597484631436,15666.666666666664
64.89829633453796,59.53601608564519,43.570578485449545,15700.0
65.35773279352227,59.64504723346828,43.815357624831314,15733.333333333332
65.14723118279572,59.54559139784946,43.35655913978496,15766.666666666668
65.08749665327979,59.493681392235615,43.26556894243641,15800.0
65.38575635876839,59.37817938420347,43.365729585006676,15833.333333333336
64.99333333333334,59.48126344086021,43.014758064516144,15866.666666666668
65.46603289895322,59.833502456740035,43.516422772911774,15900.0
65.2415082247383,59.910649433881645,43.182519760734884,15933.333333333336
65.46013440860214,59.74416666666666,43.21131720430108,15966.666666666664
65.50822580645162,59.765295698924724,43.28209677419355,16000.0
65.21150537634409,59.814811827956994,42.92502688172043,16033.333333333336
65.59722666666667,59.5992,43.292559999999995,16066.666666666664
64.78363176914925,59.201179251691435,42.34698258294161,16100.000000000002
65.23441416673407,59.501549823454894,43.10894585051616,16133.333333333332
65.12540322580645,59.80674731182796,42.91717741935484,16166.666666666668
65.07537634408602,59.82451612903226,42.89556451612904,16200.0
65.41897849462366,59.60478494623656,43.37932795698925,16233.333333333336
65.11432795698924,59.57427419354838,43.049973118279574,16266.666666666664
65.46836021505376,59.577715053763434,43.44381720430109,16300.0
65.21204301075271,59.67782258064516,43.14134408602151,16333.333333333332
65.11603238866397,59.326963562753036,43.11481781376519,16366.666666666668
65.52163978494622,59.70610215053763,43.5483064516129,16400.0
65.05978580990629,59.70709504685408,42.96937081659972,16433.333333333332
65.3386077643909,59.67416331994645,43.4485140562249,16466.666666666664
64.64690958164643,59.2864237516869,42.9838056680162,16500.0
65.27638554216867,59.58278447121821,43.82779116465864,16533.333333333336
64.18091037021,59.14418705347477,42.43442844771595,16566.666666666668
64.23913811374072,59.2058256120425,42.51033883107355,16600.0
64.43419544933704,58.68216292901184,42.381158945817646,16633.333333333332
63.95409836065575,58.63169398907104,41.81707650273224,16666.666666666668
63.96148148148148,58.20919067215363,41.94710562414266,16700.0
64.07748633879781,58.6451912568306,41.86803278688525,16733.333333333336
64.07059306944255,58.49341186138886,41.83029721955897,16766.666666666664
64.07733187234626,58.49560334200794,41.85207505821121,16800.0
63.93845528455285,58.62113821138211,41.65634146341464,16833.333333333332
64.29482993197279,58.61482993197279,41.95409523809524,16866.666666666668
64.155956284153,58.593142076502716,41.7301912568306,16900.0
64.34775510204082,58.51493877551021,41.9763537414966,16933.333333333332
63.87420765027323,58.10289617486339,41.366120218579226,16966.666666666664
64.18021768707483,58.490585034013606,41.7494149659864,17000.0
64.56571038251366,58.517377049180325,42.2474043715847,17033.333333333336
64.14521262002744,58.632537722908104,41.81347050754458,17066.666666666668
64.42751366120218,58.474316939890706,42.03737704918033,17100.0
64.10065843621399,58.475089163237314,41.72101508916324,17133.333333333332
64.42295081967212,58.31445355191258,42.35224043715847,17166.666666666668
64.4279781420765,58.34538251366122,42.34912568306011,17200.0
64.82239371929074,59.217341380046996,42.89906002990814,17233.333333333336
65.22852150537635,59.56352150537635,43.535833333333336,17266.666666666664
64.63862903225807,59.10954301075269,42.935618279569894,17300.0
65.30602409638554,59.43472556894243,43.570736278447114,17333.333333333332
64.7417273954116,59.279568151147096,42.699865047233466,17366.666666666668
64.73139001349527,59.2957354925776,42.702914979757104,17400.0
65.24872824631859,59.611807228915644,43.26374832663989,17433.333333333332
64.64863697705803,59.19835357624832,42.55605937921728,17466.666666666664
65.10344,59.24226666666666,43.02616,17500.0
64.95109333333333,59.34048000000001,42.791066666666666,17533.333333333336
65.08255376344086,58.888790322580654,42.988467741935494,17566.666666666668
65.07153225806452,58.90610215053764,42.97231182795697,17600.0
64.39557354925776,58.51692307692308,42.13357624831309,17633.333333333332
65.10168767357403,59.19822153386029,42.98590044862209,17666.666666666668
65.19977034821619,59.77197714163641,43.04601046784875,17700.0
65.29494039735098,59.575523178807934,43.55245033112583,17733.333333333336
64.60663978494624,59.053844086021506,42.63306451612903,17766.666666666664
64.57370967741936,59.065967741935474,42.608763440860216,17800.0
65.60132450331126,60.055682119205294,43.949721854304634,17833.333333333332
64.836,59.59818666666666,42.94733333333333,17866.666666666668
65.0405100671141,59.48528859060403,42.976107382550346,17900.0
64.90414342629482,59.66889774236388,42.68390438247012,17933.333333333332
65.09889338731445,59.32218623481781,43.067368421052635,17966.666666666664
65.1097705802969,59.339919028340084,43.03244264507423,18000.0
64.63336021505378,59.19389784946237,42.62510752688172,18033.333333333336
65.50618367509774,59.56695656799384,43.63988403946914,18066.666666666668
64.74153846153847,59.128879892037794,42.72931174089069,18100.0
65.13630229419704,59.1105802968961,43.00523616734143,18133.33333333333
64.79470985155196,59.222645074224026,42.66288798920378,18166.666666666668
64.79991902834008,59.23333333333333,42.670094466936575,18200.0
64.71368563685637,58.85601626016261,42.564959349593494,18233.333333333336
64.79379217273953,59.38102564102565,42.63867746288799,18266.666666666664
64.88900537634409,59.33051075268817,43.09897849462365,18300.0
64.32680216802169,58.945907859078595,42.47271002710027,18333.33333333333
64.61653116531166,58.8508401084011,42.939972899729,18366.666666666668
64.64124661246612,58.826829268292684,42.95276422764228,18400.0
64.31449864498644,58.898102981029815,42.75040650406504,18433.33333333333
64.64577235772357,58.918021680216796,43.0460162601626,18466.666666666664
64.6689156626506,59.64894243641231,43.103132530120476,18500.0
65.13349397590362,59.58987951807229,43.38155287817938,18533.333333333336
65.20549333333334,59.98586666666666,43.32458666666667,18566.666666666668
65.19394666666666,59.97101333333333,43.30066666666666,18600.0
65.15301333333333,59.52821333333333,43.57344000000001,18633.33333333333
64.67863453815261,59.781981258366784,43.1011780455154,18666.666666666668
65.44325827814569,60.09101986754967,43.93078145695364,18700.0
64.7695698924731,59.69518817204301,42.95314516129032,18733.333333333336
65.09421686746988,59.630522088353395,43.279866131191426,18766.666666666664
65.09006693440428,59.64556894243641,43.315368139223565,18800.0
64.64843373493976,59.683105756358756,42.85453815261044,18833.33333333333
64.84768000000001,59.69778666666666,43.16906666666666,18866.666666666668
64.70208835341366,59.6808032128514,42.91668005354752,18900.0
65.7071523178808,59.93523178807947,43.930834437086105,18933.33333333333
64.57098515519569,59.1510931174089,42.571174089068826,18966.666666666664
64.54241935483871,59.08690860215054,42.50295698924731,19000.0
64.9511559139785,59.00567204301076,43.25336021505376,19033.333333333336
64.77333333333334,59.186909581646425,42.927044534412964,19066.666666666668
64.5825371120108,58.9106342780027,42.677004048582994,19100.0
64.4814693877551,59.08625850340135,42.302530612244894,19133.33333333333
64.70738255033558,58.782879057663344,42.464100808108476,19166.666666666668
64.73535132173676,58.78507053828243,42.47667442816053,19200.0
64.290042459937,58.77696205999178,42.043528283796746,19233.333333333336
64.19083507536583,58.27233469028496,41.94248542193861,19266.666666666664
64.20504040542392,58.65013011916176,41.967675660868366,19300.0
64.5465004793864,58.6652513354335,42.35633474866457,19333.33333333333
64.0368989421935,58.315021957080134,41.71082939763029,19366.666666666668
64.06927727550057,58.36238837428587,41.72671806533918,19400.0
64.96119727891157,58.812789115646254,42.69629931972789,19433.33333333333
64.64525017733399,59.16737600261909,42.322666011895016,19466.666666666664
65.813880794702,59.949271523178815,43.75446357615893,19500.0
65.2758500669344,59.9340562248996,43.22305220883534,19533.333333333336
65.49726907630522,59.95333333333333,43.69017402945113,19566.666666666668
65.48610666666667,59.9092,43.60858666666667,19600.0
65.00860215053764,59.706397849462356,42.90779569892473,19633.33333333333
65.37491935483871,59.60782258064516,43.343575268817204,19666.666666666668
65.12255376344086,59.55637096774194,43.02311827956989,19700.0
65.10609986504724,59.25079622132254,42.78966261808368,19733.333333333336
64.95948896256165,59.4151640117517,42.637826473679965,19766.666666666664
64.92811514514433,59.43413924152989,42.62434974798523,19800.0
65.55872483221475,59.52255779269202,43.26986790241824,19833.33333333333
65.18008,59.60093333333333,42.79906666666667,19866.666666666668
65.39344,59.65296,43.18877333333333,19900.0
64.51943548387096,59.24841397849463,42.489005376344096,19933.33333333333
65.26597333333333,59.35557333333333,43.26058666666667,19966.666666666664
65.29082666666666,59.34026666666666,43.28538666666667,20000.0
65.12050852416286,59.549429506103884,43.250458788797566,20033.333333333336
65.47107284768211,59.45486092715232,43.66829139072848,20066.666666666668
64.78318488529014,59.162887989203774,42.95257759784076,20100.0
65.1549051490515,59.12959349593496,43.470433604336044,20133.33333333333
64.49952449528571,59.00986332635927,43.01850392631035,20166.666666666668
64.48357470858353,59.00673858109394,43.019590794228726,20200.0
64.62772789115647,58.89757823129254,43.17798639455783,20233.333333333336
64.19015659955258,58.701560539095325,42.43525945326567,20266.666666666664
64.14668830454396,58.495269006491355,42.13266035867533,20300.0
64.1769692688096,58.855256364970245,42.06784772980463,20333.33333333333
64.63027470586637,58.72659837513247,42.80566801619433,20366.666666666668
64.66027226041355,58.7246963562753,42.845691927288534,20400.0
64.40650340136055,59.04367346938776,42.589115646258506,20433.33333333333
64.7429268292683,58.89723577235773,42.81186991869919,20466.666666666664
64.21925925925926,58.71950617283951,42.1237585733882,20500.0
64.3382218907946,58.547325102880656,42.35907421216892,20533.333333333336
64.01031550068588,58.82921810699588,42.02373113854596,20566.666666666668
63.96825788751715,58.856625514403284,42.03138545953361,20600.0
64.62772357723577,59.00447154471545,42.73495934959349,20633.33333333333
64.47830601092896,59.1660655737705,42.46989071038252,20666.666666666668
65.45966648049149,59.90372084363946,43.48126279954254,20700.0
65.12816830234846,59.83137849410889,43.09377908986939,20733.333333333336
65.63027888446216,59.83638778220453,43.649349269588306,20766.666666666664
65.36082666666667,59.529759999999996,43.30101333333333,20800.0
65.33479415670651,59.754847277556436,43.221301460823376,20833.33333333333
65.50591999999999,59.47338666666667,43.32413333333334,20866.666666666668
64.77543859649123,59.33678812415655,42.67260458839407,20900.0
65.4223828647925,59.55681392235609,43.38532797858099,20933.33333333333
64.76379032258065,59.213897849462356,42.80182795698925,20966.666666666664
64.78269905533064,59.30688259109312,42.80753036437247,21000.0
65.20775475325784,59.42546998504593,43.31358149967957,21033.333333333336
65.1496050426873,59.85895901486742,43.213782281443656,21066.666666666668
65.86607213529986,59.9389989710034,43.91266721194691,21100.0
65.22691390728477,59.73835761589404,43.14593377483443,21133.33333333333
65.81032162739768,60.052135827550714,43.74459776786892,21166.666666666668
65.86232553230785,60.03910187066304,43.75982164058996,21200.0
65.11989290495315,59.63598393574297,43.0045515394913,21233.333333333336
65.55716556291391,59.707867549668855,43.49128476821192,21266.666666666664
64.78059139784946,59.248064516129034,42.80336021505377,21300.0
65.23432795698925,59.24306451612904,43.203387096774186,21333.33333333333
64.89368421052632,59.3731443994602,42.73479082321187,21366.666666666668
64.86450742240216,59.37041835357625,42.755087719298245,21400.0
65.03560053981107,59.278704453441286,43.049257759784076,21433.33333333333
64.53069387755103,59.07673469387756,42.39643537414965,21466.666666666664
65.03943089430895,59.32168021680216,43.164769647696474,21500.0
64.40389115646259,58.930639455782305,42.566040816326534,21533.333333333336
65.052125614185,59.249866481521046,43.24436552018799,21566.666666666668
65.04005554368725,59.290135654774616,43.222602008117924,21600.0
65.56136842105263,60.20121052631578,43.776184210526324,21633.33333333333
65.97752192982456,60.2469454887218,44.23796470342523,21666.666666666668
65.29256613756614,60.13703703703704,43.38613756613757,21700.0
65.88264510089452,60.26778656126482,44.14143436654878,21733.333333333336
65.19170722625601,59.548099683502215,43.2256442990505,21766.666666666664
65.43613624970317,59.8238305057914,43.48959130365954,21800.0
65.80002666666667,59.61221333333334,43.965920000000004,21833.33333333333
65.41078071818686,59.7018020632701,43.897232263000966,21866.666666666668
65.6815873015873,59.46637566137567,43.971481481481476,21900.0
65.15345695364239,59.57719205298014,43.34826490066225,21933.33333333333
65.50940397350993,59.60174834437086,43.744185430463574,21966.666666666664
65.46529115326771,59.57056542043746,43.70969103717579,22000.0
65.217059602649,59.74135099337746,43.218225165562906,22033.333333333336
65.56924619403182,59.6237830136408,43.7688451492045,22066.66666666667
65.63778513612951,60.01342899190581,43.68737517081888,22100.0
65.44884768211921,59.896900662251646,43.591337748344365,22133.33333333333
65.19694672730657,59.97345674087077,43.221548445437385,22166.66666666667
65.08398929049531,59.81062918340026,43.018286479250335,22200.0
65.22666666666666,59.7492904953146,43.36902275769746,22233.333333333336
64.71839558141406,59.58393436469422,43.15226425717886,22266.666666666664
65.1534754751521,59.47784418241533,43.69999461584022,22300.0
63.94776058074237,58.84196685385564,42.287138748116696,22333.33333333333
64.8659379217274,59.29400809716599,43.291632928475025,22366.66666666667
64.96565407405421,59.473147974367905,43.46942113306699,22400.0
63.98467360454116,58.751425868360606,42.437356399513455,22433.33333333333
65.01091240582353,59.55087540552859,43.44767675684371,22466.666666666664
65.21791233049511,60.111505308525174,43.46510038894145,22500.0
65.24423841059603,59.738754966887406,43.447019867549656,22533.333333333336
64.94034805890227,59.62875502008032,42.93402945113788,22566.66666666667
64.95199464524765,59.623319946452476,42.97327978580991,22600.0
65.22484605087014,59.64503346720214,43.250816599732254,22633.33333333333
64.61027100271002,59.40948509485095,42.61390243902439,22666.66666666667
64.9820782726046,59.24499325236168,42.955492577597845,22700.0
65.07424731182796,59.56266129032258,42.96798387096774,22733.333333333336
65.1608064516129,59.092580645161284,42.99586021505376,22766.666666666664
65.18798920377867,59.16909581646424,43.03719298245614,22800.0
65.07308609271523,59.62076821192053,42.924476821192044,22833.33333333333
65.71284983291562,59.98470133667502,43.85612468671678,22866.66666666667
65.24258908861557,59.85149269420793,43.322085567118684,22900.0
65.40990728476821,59.58606622516556,43.565165562913904,22933.33333333333
65.14282294741881,59.75597755259448,43.434453043963934,22966.666666666664
65.13843453283332,59.770632197664824,43.41320247878933,23000.0
65.6102328562273,59.73694189275796,43.86135441145054,23033.333333333336
65.16856831298705,59.75140296284475,43.629591212532254,23066.66666666667
65.5190438247012,59.82977423638778,43.799442231075695,23100.0
65.3104,59.84629333333334,43.29544,23133.33333333333
65.55563492063493,59.97640211640212,43.723941798941794,23166.66666666667
65.59507664705416,59.98825888498986,43.78736708793964,23200.0
65.19173333333333,59.75661333333333,43.23957333333333,23233.333333333336
65.60225763612218,59.73806108897743,43.53593625498008,23266.666666666664
64.86749683296947,59.4147058030781,42.56381229616452,23300.0
65.09366442953021,59.310577181208046,42.74655033557047,23333.33333333333
64.88302202096979,59.36182313145199,42.393978598959606,23366.66666666667
64.87396566130293,59.36635131128541,42.4085334627099,23400.0
65.57904,59.76898666666666,43.41024,23433.33333333333
64.91252688172042,59.52352150537635,42.83741935483871,23466.666666666664
65.44549800796813,59.61559096945551,43.50658698539176,23500.0
64.80465863453816,59.46240963855421,42.80872824631861,23533.333333333336
65.08307898259706,59.4532797858099,43.183105756358756,23566.66666666667
65.12519410977242,59.4310843373494,43.220642570281115,23600.0
64.80425702811245,59.434564926372154,42.80955823293173,23633.33333333333
65.19903614457833,59.49994645247657,43.19518072289157,23666.66666666667
64.72330623306233,59.332195121951216,42.51864498644985,23700.0
65.41868279569893,59.64733870967742,43.39083333333333,23733.333333333336
64.84806451612904,59.8269623655914,42.873521505376345,23766.666666666664
64.81567204301075,59.8454301075269,42.86102150537634,23800.0
65.34790818904757,59.770738583472955,43.41330886459746,23833.33333333333
65.27374834437086,59.996397350993384,43.6595761589404,23866.66666666667
65.72309437745706,59.79417429619272,44.21949288936967,23900.0
65.17239820207983,59.66400702146333,43.3840261709088,23933.33333333333
65.7354146956796,59.79972143382739,43.875722695259114,23966.666666666664
65.8113770085222,59.85625709084193,44.00973589087359,24000.0
65.25694296090579,59.6564302499466,43.29574343089086,24033.333333333336
65.43486559139785,59.60083333333333,43.27817204301076,24066.66666666667
64.86569105691056,59.36967479674797,42.533224932249325,24100.0
65.36126344086021,59.67373655913978,43.121075268817215,24133.33333333333
65.54637091412005,60.05787387962445,43.41474507300726,24166.66666666667
65.44050870147255,59.89973226238286,43.236412315930394,24200.0
65.74298666666667,59.81557333333333,43.84570666666666,24233.333333333336
65.31365461847389,59.91860776439089,43.685140562249,24266.666666666664
65.83185723024548,59.938189845474604,44.195031782760175,24300.0
65.43630522088353,59.77785809906292,43.59764390896921,24333.33333333333
65.96184210526316,59.960631578947364,44.499078947368425,24366.66666666667
65.98131578947368,59.960947368421046,44.531815789473676,24400.0
65.60030078362047,59.903749241444814,43.78449117437536,24433.33333333333
65.76247011952191,59.789375830013284,43.93949535192563,24466.666666666664
65.78940929280034,60.137237692491816,44.076544588951826,24500.0
65.65327935222672,59.66917678812416,43.89241565452093,24533.333333333336
65.3719028340081,59.75435897435898,43.365802968960864,24566.66666666667
65.39303643724696,59.73770580296896,43.40871794871796,24600.0
65.57166666666667,59.74572580645161,43.62016129032258,24633.33333333333
65.36257452574526,59.9489430894309,43.373550135501354,24666.66666666667
65.64904183535762,59.85133603238866,43.64782726045884,24700.0
64.90567204301075,59.98465053763441,42.93637096774194,24733.333333333336
65.34322580645161,59.78336021505376,43.46680107526882,24766.666666666664
65.01551956815115,59.399244264507416,43.07365721997301,24800.0
65.40597873407033,60.15400649059392,43.39091316851798,24833.33333333333
65.76501939262816,60.07891612358512,43.80021635313052,24866.66666666667
65.59875959213707,60.32384631556817,43.444023967202774,24900.0
65.70918514252807,60.22987723477214,43.7096563097139,24933.33333333333
65.25312084993361,59.93532536520584,43.179442231075704,24966.666666666664
65.21410052910053,59.863677248677256,43.10859788359789,25000.0
65.47978919631093,59.67897233201581,43.39478260869565,25033.333333333336
65.1084,59.59021333333333,42.88997333333333,25066.66666666667
65.29223560910307,59.73764390896921,43.240963855421676,25100.0
65.06195257423627,60.14080858790857,43.15386669515061,25133.33333333333
65.7096,60.12213333333333,43.81986666666667,25166.66666666667
65.63721115537848,60.08605577689244,43.728791500663995,25200.0
65.37925033467202,60.03207496653279,43.248594377510045,25233.333333333336
65.51102862636189,59.9198889126255,43.65968810083316,25266.666666666664
64.97587896408766,59.732407257847406,42.91398804716524,25300.0
65.14701612903225,59.251263440860214,43.278198924731186,25333.33333333333
64.89414654988249,59.582514419995725,42.959490493484296,25366.66666666667
64.91559642866719,59.66147411319945,42.996246346891176,25400.0
65.63880581072421,59.85449156163214,43.772190771202744,25433.33333333333
65.4231216931217,59.978571428571435,43.800317460317466,25466.666666666664
65.66214285714285,60.082142857142856,44.00613756613758,25500.0
65.47155378486056,60.111128818061104,43.89564409030545,25533.333333333336
65.82045152722444,60.04974767596281,44.03426294820717,25566.66666666667
65.84382470119522,60.044807436918994,44.04961487383797,25600.0
65.60874666666666,60.03509333333334,43.74072,25633.33333333333
65.92909090909092,59.78993412384717,44.09148880105402,25666.66666666667
65.54236387782204,59.96810092961487,43.87338645418328,25700.0
65.75060846560848,59.82661375661376,44.19338624338624,25733.333333333336
65.47743386243387,59.84050264550265,43.77685185185185,25766.666666666664
65.44383597883598,59.84891534391535,43.767486772486784,25800.0
65.76292164674635,59.61808764940239,43.90159362549801,25833.33333333333
65.46434666666667,59.8356,43.61738666666667,25866.66666666667
65.76934926958832,59.72483399734396,44.096042496679964,25900.0
65.15099462365592,59.65731182795699,43.36583333333334,25933.33333333333
65.53774193548387,59.61650537634409,43.74086021505378,25966.666666666664
65.53263440860215,59.62978494623656,43.74543010752689,26000.0
65.22217741935484,59.55220430107528,43.36612903225807,26033.333333333336
66.09186746987952,60.151210103572176,44.431806172056646,26066.66666666667
65.30570882852292,59.9577939303905,43.53408849745331,26100.0
65.61697211155378,59.91755644090306,43.86156706507304,26133.33333333333
64.92275769745649,59.732904953145905,43.33975903614458,26166.66666666667
64.89673360107096,59.73381526104418,43.39344042838018,26200.0
65.68410666666666,59.921413333333334,44.00162666666667,26233.333333333336
65.31858666666666,59.97114666666667,43.47914666666666,26266.666666666664
65.72232,59.88570666666666,43.76669333333334,26300.0
65.25368279569892,59.7003494623656,43.19118279569892,26333.33333333333
65.83101333333333,59.76752,43.97829333333333,26366.66666666667
65.84997333333334,59.77597333333333,44.03234666666667,26400.0
65.51037333333333,59.78253333333333,43.63394666666667,26433.33333333333
65.49268817204303,59.530698924731176,43.58376344086022,26466.666666666664
65.0239625167336,59.51303882195448,43.07017402945114,26500.0
65.35842666666667,59.46005333333334,43.45264,26533.333333333336
65.16008032128514,59.547041499330646,43.418554216867456,26566.66666666667
64.80857526881721,59.1691935483871,42.99147849462365,26600.0
65.46410666666667,59.49898666666667,43.69157333333333,26633.33333333333
64.94334672021421,59.68315930388219,43.13432396251672,26666.66666666667
64.77457241827236,59.096043515912534,42.78507252652089,26700.0
65.024765729585,59.62506024096386,42.99855421686747,26733.333333333336
65.45775100401606,59.52136546184739,43.382195448460514,26766.666666666664
65.46423025435074,59.52564926372154,43.391807228915646,26800.0
65.14155287817938,59.560374832664,42.89844712182062,26833.33333333333
65.6808908352916,59.80089724417859,43.62251655629139,26866.66666666667
65.1238169289755,59.52596723597072,43.127865511971464,26900.0
65.49057106328574,59.77181440443214,43.67350308970807,26933.33333333333
64.88440451633916,59.270980349582025,42.84882206057974,26966.666666666664
64.87048094669417,59.26202366735425,42.863939854521774,27000.0
65.0998087431694,59.13508196721312,42.793469945355184,27033.333333333336
64.562782369146,58.81641873278237,42.189972451790645,27066.66666666667
65.0869918699187,58.963929539295385,42.80493224932249,27100.0
64.97678911564626,59.33931972789116,42.786721088435385,27133.33333333333
65.22276422764227,59.07189701897018,43.1939566395664,27166.66666666667
65.27306233062329,59.068536585365855,43.24747967479675,27200.0
65.33319033702442,59.615411427192534,43.306753894415095,27233.333333333336
65.43704301075269,59.39459677419354,43.35069892473119,27266.666666666664
65.15661290322578,59.46212365591397,42.994354838709675,27300.0
65.39542168674699,59.47890227576974,43.30613119143239,27333.33333333333
65.13231593038822,59.62179384203482,42.987336010709505,27366.66666666667
65.08490666666667,59.57589333333333,42.90621333333333,27400.0
65.09311914323962,59.02848728246318,42.89502008032128,27433.33333333333
64.72610928456919,58.9678015379181,42.48811238214276,27466.666666666664
64.89480948257199,58.96798549469582,42.703777873998696,27500.0
64.84288798920377,59.19630229419703,42.6761673414305,27533.333333333336
66.03192999053927,60.06425417849261,44.12729948491537,27566.66666666667
66.07717474472969,60.14772697290309,44.19717157858632,27600.0
65.53263157894736,60.153868421052636,43.7214210526316,27633.33333333333
65.7177910873064,59.9711617107728,43.79011107886336,27666.66666666667
65.30165430991265,60.16690852484104,43.493997519854354,27700.0
65.41166666666668,59.947539682539684,43.51624338624339,27733.333333333336
65.1739176626826,60.0308100929615,43.13620185922974,27766.666666666664
65.18621513944223,60.02579017264277,43.13405046480744,27800.0
65.63904656785452,60.04927467675814,43.68190896667718,27833.33333333333
65.26849503276263,60.030358275206076,43.21694673430565,27866.66666666667
65.68364950792855,60.08878393709929,43.606976069233,27900.0
65.40762640597077,60.04372963313361,43.26327131294017,27933.33333333333
65.4513492063492,59.8594708994709,43.542301587301594,27966.666666666664
65.59920634920636,60.018895196047524,43.785819405024704,28000.0
65.35120849933598,59.76084993359894,43.32666666666667,28033.333333333336
65.52515764755546,59.45916994274557,43.96567372892535,28066.66666666667
65.16272847682119,59.4922119205298,43.88601324503311,28100.0
65.62976729576212,59.70727429783002,44.351490720624035,28133.33333333333
65.09135207496654,59.43164658634539,43.54800535475234,28166.66666666667
65.04389333333333,59.37381333333333,43.46818666666667,28200.0
65.65441798941801,59.5923015873016,44.140026455026465,28233.333333333336
65.4749470899471,59.83783068783069,44.04171957671958,28266.666666666664
65.73044619422572,59.69448818897639,44.11585301837271,28300.0
65.22802812400128,59.46969212741025,43.290215191221904,28333.33333333333
65.80580059157657,60.01334973693166,44.29809177289742,28366.66666666667
65.84836269402925,60.030625867078506,44.31947752794285,28400.0
65.59957240444281,59.97056369609428,43.890598112322046,28433.33333333333
65.75228137873495,60.06497366637117,44.08262501955468,28466.666666666664
65.43038473667613,59.95403658152002,43.56685588142542,28500.0
65.95071067717195,59.673324084496,44.05706358139413,28533.333333333336
65.5102251655629,59.861271523178814,44.02415894039735,28566.66666666667
65.54603973509933,59.85554966887417,44.033086092715216,28600.0
65.78840579710145,59.70650856389987,44.04577075098814,28633.33333333333
65.36962666666666,59.826,43.64584,28666.66666666667
65.86809523809525,59.91195767195767,44.004259259259264,28700.0
65.47538666666667,59.881519999999995,43.38245333333333,28733.333333333336
65.66013280212482,59.8257636122178,43.70972111553785,28766.666666666664
65.65545816733068,59.829375830013284,43.76223107569722,28800.0
65.2391507794326,59.576298831519566,43.512446856867825,28833.33333333333
65.6807171314741,59.80658698539177,43.89737051792829,28866.66666666667
65.40621513944221,59.82066401062417,43.39227091633466,28900.0
65.74166007905139,59.99934123847167,43.84882740447958,28933.33333333333
65.2867202141901,59.653761713520744,43.30666666666666,28966.666666666664
65.26623828647925,59.6817670682731,43.28340026773762,29000.0
65.9180876494024,59.854183266932274,44.097556440903055,29033.333333333336
65.18021419009371,59.565381526104424,43.51376171352074,29066.66666666667
65.42354666666667,59.40448000000001,43.78626666666667,29100.0
65.49930942895087,59.66714475431607,43.86900398406375,29133.33333333333
65.46039999999999,59.4348,43.67816,29166.66666666667
65.44424000000001,59.4564,43.65784,29200.0
64.59764018185754,59.1558778956484,42.696768781121456,29233.333333333336
65.36060927152317,59.71602649006622,43.71390728476821,29266.666666666664
65.03899039868081,59.801563871379564,43.317136094045054,29300.0
65.42352190217825,59.86600707465624,43.58248889598127,29333.33333333333
64.91104998931853,59.59498504593036,42.84744178594317,29366.66666666667
64.90130314035463,59.59263512070071,42.85003204443496,29400.0
65.57626490066225,59.81117880794702,43.64582781456953,29433.33333333333
65.3539987765632,59.937711109338,43.27378387723078,29466.666666666664
65.01006747638327,59.35708502024292,42.93414304993252,29500.0
65.03501622114379,59.545084055017824,42.98120492264793,29533.333333333336
65.17005376344086,59.21518817204301,43.358763440860216,29566.66666666667
65.56251673360107,59.58050870147255,43.87900937081661,29600.0
65.06615796519411,59.70677376171352,43.377563587684065,29633.33333333333
65.59142857142858,59.73534391534393,43.86190476190475,29666.66666666667
65.2702380952381,59.76701058201058,43.35886243386243,29700.0
65.98840852130326,60.26608187134502,44.47258771929825,29733.333333333336
65.48413245033112,60.051284768211914,43.98434437086093,29766.666666666664
65.47552317880796,60.052211920529786,43.98045033112582,29800.0
65.63008,59.94538666666666,44.02608,29833.33333333333
65.36297195324661,60.13909923221023,43.633571673570614,29866.66666666667
65.31261333333333,59.57789333333334,43.40714666666667,29900.0
65.19785430463575,59.78450331125828,43.14050331125828,29933.33333333333
65.45012048192771,59.66730923694779,43.92366800535475,29966.666666666664
65.43229333333333,59.61594666666666,43.93642666666667,30000.0
64.75163292847503,59.36002699055332,43.490526315789474,30033.333333333336
65.42348058902276,59.569692101740294,44.05480589022758,30066.66666666667
65.24508651997435,59.83862956633198,43.79675817133091,30100.0
65.81092847154429,59.970792327379215,44.16490330070447,30133.33333333333
65.59812760977685,60.19503178276018,43.82212292880129,30166.66666666667
65.62217080241496,60.201574509960366,43.847283172424795,30200.0
65.91531125827814,60.06535099337748,44.14868874172185,30233.333333333336
65.65867549668874,60.03268874172185,43.73094039735099,30266.666666666664
65.85324925463708,59.888657291364346,43.926492704677976,30300.0
65.5613545816733,60.09091633466135,43.43954847277556,30333.33333333333
65.74786666666667,59.98298666666667,43.53173333333334,30366.66666666667
65.72733067729084,59.937875166002655,43.47500664010624,30400.0
65.55972137938312,60.09287353895674,43.30772275137859,30433.33333333333
65.87814043939872,59.9277567539157,43.81646168401135,30466.666666666664
65.48021164021165,59.977566137566136,43.229814814814816,30500.0
65.57349333333333,59.80442666666666,43.72976,30533.333333333336
65.0674193548387,59.56913978494625,43.11021505376344,30566.66666666667
65.02409638554218,59.50232931726906,43.032690763052216,30600.0
65.35641231593038,59.42286479250335,43.403105756358784,30633.33333333333
65.24688,59.84434666666667,43.69866666666667,30666.66666666667
65.36819277108435,59.52128514056225,43.717028112449796,30700.0
64.60278688524589,59.056448087431704,42.59486338797815,30733.333333333336
64.8893169398907,59.08188524590164,42.91300546448088,30766.666666666664
64.87931693989071,59.12210382513661,42.92669398907104,30800.0
64.24726828997726,58.6106827888402,42.128043707360355,30833.33333333333
64.5492216435991,58.668913085855905,42.42061878637667,30866.66666666667
64.31872232587929,58.71826004622796,41.98395945306191,30900.0
64.95213632722954,59.00762283536333,42.84102521611843,30933.33333333333
65.00823848238483,59.277642276422775,43.34065040650407,30966.666666666664
64.99810298102982,59.293279132791326,43.32924119241192,31000.0
65.00877049180329,58.799918032786884,43.23166666666667,31033.333333333336
64.61765027322404,58.88693989071038,42.74360655737705,31066.66666666667
64.8963537414966,58.7872925170068,42.98206802721089,31100.0
64.90358487477492,59.12113275495172,42.73724559393245,31133.33333333333
65.16664402358504,58.940385294677064,43.001141211314284,31166.66666666667
65.16577452925033,58.95630790968127,42.98782707931419,31200.0
64.46941514860978,58.6403780304068,42.266073140665654,31233.333333333336
64.78934392548966,58.588138611149155,43.00115052732502,31266.666666666664
64.57437561887997,58.58686324128067,42.93030036307625,31300.0
64.97771428571428,58.76712925170068,43.368217687074825,31333.33333333333
64.13920673341401,58.28498734734294,42.472026625591376,31366.66666666667
64.47911245034928,58.68842624298042,42.87672921517601,31400.0
65.28834688346883,59.26474254742548,43.7380216802168,31433.33333333333
65.39327152317881,60.2044238410596,43.78871523178808,31466.666666666664
65.84847051403342,60.172658467360456,44.192052980132466,31500.0
65.26685258964143,59.76998671978752,43.41192563081009,31533.333333333336
65.36378666666667,59.40506666666667,43.32874666666667,31566.66666666667
65.43325301204821,59.467068273092366,43.40149933065596,31600.0
65.44162666666666,59.86186666666666,43.28061333333334,31633.33333333333
65.71455511288181,59.75253652058433,43.546852589641425,31666.66666666667
65.16669344042838,59.544953145917,42.943078982597044,31700.0
65.47797333333334,59.48682666666666,43.25325333333333,31733.333333333336
65.3017938420348,59.50321285140562,43.055635876840704,31766.666666666664
65.35099337748342,59.633192052980135,43.17438410596026,31800.0
65.90047755995883,59.98559404765045,43.814912535289295,31833.33333333333
65.24767156539404,59.51088361784649,43.41410516872904,31866.66666666667
66.12252964426878,59.91974452268146,44.40847577415385,31900.0
65.49526397720376,59.92124218358354,43.67924329173372,31933.33333333333
65.85156064483786,59.89140128228807,44.040658557821686,31966.666666666664
65.90000263845279,59.89121659059128,44.081923959789975,32000.0
65.26088459799462,59.75321152158303,43.39751057208968,32033.33333333333
65.91491390728477,59.946119205298004,44.047602649006606,32066.66666666667
65.6959227639033,60.0456927045932,43.76850448150215,32100.0
66.01509195008047,59.87989762803092,44.0448536977916,32133.33333333333
65.60845333333333,59.88445333333333,43.4732,32166.666666666664
65.69393377483443,60.069562913907276,43.56508609271523,32200.000000000004
65.99724503311258,60.062384105960255,43.975072847682114,32233.333333333336
65.4349497970519,59.79371395001069,43.28783913693656,32266.666666666664
65.69964626718796,59.69594936035533,43.82542088885343,32300.0
65.4090268358201,59.76084470331657,43.504055958935076,32333.333333333336
65.71006693440428,59.46551539491298,43.86805890227577,32366.66666666667
65.87385302800605,59.65294289741748,44.08037447804463,32400.0
65.33822708050745,59.73882284103301,43.45706002819225,32433.33333333333
65.05158042866421,58.95375081186404,43.088817925958004,32466.66666666667
64.85865047233469,59.25468286099865,42.82758434547908,32500.0
65.87699918854541,59.98107478470278,44.21870010208623,32533.33333333333
65.33896825396826,60.03579365079365,43.581269841269844,32566.66666666667
65.41630238462949,60.14009370991807,43.710546292176005,32600.0
65.50693121693122,59.69304232804232,43.77473544973545,32633.33333333333
65.04728,59.42098666666666,42.94493333333333,32666.666666666664
65.42117804551539,59.53290495314592,43.336385542168685,32700.000000000004
65.16096385542167,59.516171352074956,43.01078982597055,32733.333333333336
65.79148171633904,59.86667723525682,43.85106214331008,32766.666666666664
65.74430171015186,59.671267852868425,43.71658820713317,32800.0
65.35602649006623,59.721165562913896,43.13043708609271,32833.333333333336
66.03160264900662,60.113271523178796,44.240052980132454,32866.666666666664
65.20490066225165,59.745059602649,43.37017218543046,32900.0
65.73460002102387,59.947072427204894,44.065962367286865,32933.33333333333
65.06950993377482,59.71462251655629,43.64826490066225,32966.66666666667
65.39984105960265,60.10839735099336,44.064211920529786,33000.0
65.60135616474498,59.993694097781066,44.25012532650853,33033.33333333333
65.33579588929052,60.08474710429804,43.74188016147331,33066.66666666667
65.78158731814153,60.056995359023844,44.05191114355738,33100.0
65.49342962924337,60.095739688168116,43.622725139490015,33133.333333333336
65.58084321475626,60.01818181818182,43.71702239789197,33166.666666666664
65.66240809302809,60.1566981279658,43.87816133910414,33200.0
65.30938839111803,60.066614725360346,43.42843786521232,33233.333333333336
65.565859375,59.73854166666667,43.69002604166667,33266.666666666664
65.15946203033346,59.64590709718333,43.171616551286796,33300.0
65.66489417989418,59.747645502645504,43.80338624338624,33333.333333333336
65.39790506846785,60.085406717500845,43.676842299675464,33366.666666666664
65.05613245033112,59.734357615894034,43.27197350993378,33400.0
65.66438880240625,59.85617793725761,44.040658557821686,33433.33333333333
65.40678145695364,60.00741721854304,43.75348344370861,33466.66666666667
65.83025165562914,59.92394701986755,44.01600000000001,33500.0
65.16091397849462,59.584569892473105,43.10967741935484,33533.33333333333
64.9704100209222,58.91449066652175,42.80167377659429,33566.66666666667
65.11457489878542,59.07570850202429,43.005856950067475,33600.0
64.70158782124734,59.06032083810771,42.55546461504883,33633.333333333336
64.44603590331205,58.57808151907022,42.54449718993835,33666.666666666664
64.27737127371273,58.74978319783197,42.43284552845528,33700.0
64.12439391864129,58.121462813313244,42.126612792768114,33733.333333333336
63.979043715847,58.41030054644808,42.000983606557384,33766.666666666664
63.99248633879782,58.38918032786885,42.02907103825137,33800.0
64.234043715847,58.36857923497268,42.47117486338797,33833.333333333336
64.00344173441735,58.79238482384824,42.3020054200542,33866.666666666664
64.23528127898729,58.47902002509958,42.61071097288154,33900.0
63.96499699896328,58.552245321110924,42.408713919353964,33933.33333333333
64.3721285535003,58.48676815627217,42.92459213182736,33966.66666666667
64.44333652924257,58.55997808519381,42.99701410765649,34000.0
63.97879781420765,58.442431693989064,42.2425956284153,34033.33333333333
64.85622132253711,59.065290148448035,43.47309041835358,34066.66666666667
65.0310052910053,59.6794708994709,43.56661375661376,34100.0
65.09771580345286,59.35710491367862,43.28217795484728,34133.333333333336
64.56717536813922,58.9841499330656,42.545622489959854,34166.666666666664
64.63887096774194,59.05333333333334,42.62024193548387,34200.0
65.18866666666666,59.23882666666667,43.25472,34233.333333333336
64.83912350597609,59.026215139442215,42.89338645418327,34266.666666666664
64.9709083130565,58.80012834567769,43.189924864301176,34300.0
64.52139597315437,58.98829530201343,42.73863087248322,34333.333333333336
65.09815104650238,59.219221688728545,43.32904475157174,34366.666666666664
65.02172642762284,59.17816733067729,43.280053120849935,34400.0
64.88899541919676,59.40287099179717,42.949984020453826,34433.33333333333
65.40930171277998,59.41367588932806,43.46703557312253,34466.66666666667
65.13693121693122,59.57566137566138,43.167169312169314,34500.0
65.5315883527804,59.61255650162935,43.75940817828236,34533.33333333333
65.3098071290995,59.841640062267466,43.333394897232246,34566.66666666667
65.32962190971216,59.83723384607266,43.36405371889924,34600.0
65.52196511965383,59.927970238252286,43.73475633888288,34633.333333333336
64.81328,59.374559999999995,42.79642666666667,34666.666666666664
65.16611920529802,59.55117880794703,43.36468874172185,34700.0
64.91133774834437,59.61859602649006,42.97560264900662,34733.333333333336
65.35082666666666,59.38048000000001,43.37690666666666,34766.666666666664
65.38402666666667,59.39122666666667,43.38042666666666,34800.0
64.41426715739337,58.74572418272354,42.3333784368911,34833.333333333336
64.91263721552879,58.90500669344043,42.77930388219546,34866.666666666664
65.03316556291391,59.59427814569536,43.03226490066225,34900.0
65.04386577181208,59.126979865771816,43.017181208053685,34933.33333333333
64.93962666666667,59.30856,42.95274666666667,34966.66666666667
64.94511999999999,59.30738666666666,42.96298666666666,35000.0
65.38763052208836,59.350093708165986,43.38431057563587,35033.33333333333
64.84679658230236,59.22721759521307,42.73752729036953,35066.66666666667
65.13495302013423,59.16230872483222,43.10174496644296,35100.0
64.77736912751678,59.16418791946309,42.917342281879186,35133.333333333336
64.81865663563542,58.753815760987216,43.03431478675039,35166.666666666664
64.75534352173796,58.70146357241045,42.99148270936093,35200.0
64.77334228187921,59.14515436241611,42.97087248322148,35233.333333333336
65.69912350597609,59.61899070385126,43.95774236387782,35266.666666666664
64.68677419354839,59.00397849462365,43.00698924731183,35300.0
65.3336837282014,59.15800113204497,43.51602382685103,35333.333333333336
64.69594869983425,58.8958508817216,42.83080183680678,35366.666666666664
64.66339700567889,58.90758905524006,42.82169931799039,35400.0
65.09637096774193,58.91731182795697,43.42766129032258,35433.33333333333
64.96297289326219,59.20712121618361,43.5002010885594,35466.66666666667
65.58531830805383,59.59885708182011,44.145027771843615,35500.0
65.17040322580645,59.48438172043011,43.47548387096774,35533.33333333333
65.34206157965194,59.51582329317269,43.96653279785811,35566.66666666667
65.37662650602411,59.520615796519394,43.971084337349396,35600.0
65.05837921221308,59.888135322747935,43.5884199047847,35633.333333333336
65.79565182976702,60.22049550143795,44.34766892694124,35666.666666666664
65.58710851956413,60.17152581726077,44.02432653491992,35700.0
65.72602409638553,59.914002677376175,44.32859437751004,35733.333333333336
65.09746666666666,60.02202666666667,43.66056,35766.666666666664
65.07909333333333,60.06488,43.65005333333333,35800.0
65.51019920318726,59.81771580345286,44.177609561752995,35833.333333333336
65.13517333333333,60.024719999999995,43.76144,35866.666666666664
65.66111258278146,60.01560264900662,44.352635761589404,35900.0
65.01255689424364,59.48267737617135,43.30921017402945,35933.33333333333
65.77003973509933,59.94919205298014,44.18760264900661,35966.66666666667
65.73391203398327,59.91319490250918,44.12023429460965,36000.0
65.40854497354498,60.03089947089947,43.584444444444436,36033.33333333333
65.53633466135459,59.838459495351934,43.70308100929615,36066.66666666667
64.94517667987385,59.21913155979623,42.86175574782351,36100.0
65.33879518072288,59.514564926372145,43.31100401606425,36133.333333333336
65.23867197875165,59.785551128818064,43.34116865869853,36166.66666666666
65.22539176626826,59.805073041168654,43.25622841965471,36200.0
65.69637566137567,59.61619047619048,43.87843915343915,36233.333333333336
64.63533773544057,58.90552608789782,42.59864148084001,36266.66666666666
64.96977159558345,58.876109547521104,42.99304503139207,36300.0
64.57228296168002,59.01604784585408,42.80986144187053,36333.333333333336
65.20671140939598,59.35028187919463,43.4104966442953,36366.66666666666
65.2198389261745,59.36308724832215,43.45387919463087,36400.0
65.08947791164658,59.6663453815261,43.232958500669355,36433.33333333333
65.25777181208053,59.38931543624161,43.305181208053696,36466.66666666667
64.92222818791946,59.53962416107382,42.877503355704704,36500.0
64.82326176983436,59.04732454228422,42.755503487358325,36533.33333333333
65.1113716611412,59.56737015174793,43.28050456861001,36566.66666666667
65.11401309937736,59.55693916606021,43.244521711005106,36600.0
65.75809395973154,59.76826845637585,44.15476510067114,36633.333333333336
65.27681392235608,59.55483266398929,43.57014725568942,36666.66666666666
66.00453333333333,59.81274666666667,44.28386666666667,36700.0
65.49632,59.9392,43.55597333333333,36733.333333333336
65.97309236947791,59.862034805890225,44.086104417670676,36766.66666666666
65.97370666666667,59.79557333333333,44.03109333333333,36800.0
65.45648,59.88666666666666,43.53845333333334,36833.333333333336
65.53228494623656,59.57693548387096,43.67153225806453,36866.66666666666
65.29131720430108,59.62099462365591,43.19112903225806,36900.0
65.72876494023905,59.7460026560425,43.81588313413015,36933.33333333333
65.17550200803213,59.436198125836675,43.23611780455153,36966.66666666667
65.11866131191432,59.44305220883536,43.20725568942437,37000.0
65.89300662251655,60.006251655629136,43.96728476821192,37033.33333333333
65.54901333333333,59.87714666666667,43.41338666666667,37066.66666666667
65.89189333333333,59.75674666666666,43.83202666666666,37100.0
65.49786666666667,59.754933333333334,43.37826666666667,37133.333333333336
66.02302788844621,59.96488711819389,43.993067729083656,37166.66666666666
66.06645418326693,59.96406374501992,44.01011952191236,37200.0
65.55434984973004,60.107901805899104,43.598712731721584,37233.333333333336
66.1940789473684,60.20071010860485,44.42011278195488,37266.66666666666
65.62992435149073,59.92665497474021,43.690704918461904,37300.0
65.93565950318037,59.86427767452818,44.08365835143837,37333.333333333336
65.63398863221568,59.89510872399229,43.706445220837466,37366.66666666666
65.60115697720074,59.88634400439757,43.635683061539666,37400.0
65.8596805609661,59.744033242436046,44.163043760550565,37433.33333333333
65.30883660130719,59.49469281045752,43.35981699346405,37466.66666666667
65.48436601307189,59.45665359477124,43.735241830065355,37500.0
65.17568627450979,59.48188235294117,43.51903267973856,37533.33333333333
65.41919584954604,59.48332036316472,43.80207522697796,37566.66666666667
65.46259403372244,59.489156939040214,43.843138780804146,37600.0
65.13934895833334,59.529765625,43.509140625,37633.333333333336
65.501484375,59.3559375,43.90028645833333,37666.66666666666
64.94041830065359,59.544758169934646,43.26465359477124,37700.0
65.26381699346405,59.493830065359475,43.71265359477124,37733.333333333336
65.37397203947367,60.00339226973684,43.96831311677632,37766.66666666666
65.33693426172435,59.96029592463649,43.863531640385006,37800.0
65.56995033112582,59.84545736754967,44.04234788907285,37833.333333333336
65.35473653901525,60.06646074915583,43.547129806559695,37866.66666666666
65.63656984929864,59.99903530270637,43.84937685769412,37900.0
65.33714629741121,60.02683035363715,43.615004057273,37933.33333333333
65.76166793183782,59.8734916106065,44.37612229406068,37966.66666666667
65.78836854830233,59.87467150215495,44.393698097340476,38000.0
65.29225796278776,60.01306107431935,43.87385682749921,38033.33333333333
65.43551128818059,59.789455511288175,43.81096945551129,38066.66666666667
65.30927943853723,60.01886493760061,43.48262578823777,38100.0
65.75475664879639,59.83364869126458,44.155366340796796,38133.333333333336
65.51989225031082,60.230263157894726,44.28779009531703,38166.66666666666
65.2944137022398,59.84484848484848,43.85702239789197,38200.0
65.9393198780616,59.9823662356775,44.52076106380742,38233.333333333336
65.52238410596026,60.011629139072845,44.238463576158935,38266.66666666666
65.42163355408388,59.66400702146333,44.52376392989175,38300.0
64.86227319226835,59.49326980024768,43.63603079739406,38333.333333333336
64.98372523259243,59.438614365766675,43.7168673083626,38366.66666666666
65.01774941684317,59.44204627718048,43.74603855537978,38400.0
64.71641150762795,59.39523286055178,43.199372603694655,38433.33333333333
65.04531165311653,59.21772357723577,43.338346883468844,38466.66666666667
64.73402686543153,59.39190819636968,43.07764699573692,38500.0
65.72923893619257,60.07426679280984,44.22600651739725,38533.33333333333
65.36364123159304,59.80380187416332,43.78779116465864,38566.66666666667
65.36567603748327,59.805542168674705,43.805997322623824,38600.0
66.03224189335373,59.9881533468774,44.56626474235508,38633.333333333336
65.62423155061872,60.098572597029104,43.89406611962745,38666.66666666666
65.90217824942152,59.906699646267185,44.156227559243604,38700.0
65.11905913978495,59.46881720430108,43.24354838709678,38733.333333333336
65.35197333333333,59.28413333333334,43.52938666666667,38766.66666666666
65.38285333333333,59.27437333333334,43.54093333333334,38800.0
64.90674796747967,59.252140921409215,42.85831978319784,38833.333333333336
65.70471523178807,60.04876821192053,44.09835761589404,38866.66666666666
65.38831341301461,60.07144754316069,43.798140770252324,38900.0
65.53868808567603,59.92757697456492,43.931298527443104,38933.33333333333
65.23864,59.82901333333334,43.52914666666667,38966.66666666667
65.25949333333334,59.82098666666667,43.55328,39000.0
65.32206989247311,59.55604838709678,43.61387096774194,39033.33333333333
65.14981781430357,59.70504534695071,43.374611026889006,39066.66666666667
65.57455671864986,59.72655415509506,44.104224524674216,39100.0
64.87952942443331,59.3971087061864,43.484089807785494,39133.333333333336
64.75591836734694,58.83151020408164,43.12448979591837,39166.66666666666
65.17481298763975,59.3546665951685,43.66659516851221,39200.0
64.20510288065843,58.52345679012346,42.25305898491085,39233.333333333336
64.48416052144613,58.32921810699589,42.499930952578225,39266.66666666666
64.21679012345679,58.56850480109739,42.535610425240044,39300.0
64.84062585034015,58.830911564625865,43.28748299319728,39333.333333333336
64.09947861778245,58.48557878972766,42.25148372067225,39366.66666666666
64.12998502412779,58.454517721448774,42.24316379166898,39400.0
64.54493112947658,58.5803305785124,42.8033608815427,39433.33333333333
64.35977961432508,58.58914600550964,42.47099173553718,39466.66666666667
65.54210794433868,59.77341341126632,43.87272434780277,39500.0
65.6315,59.98939473684211,44.000473684210526,39533.33333333333
65.53167336010709,59.33978580990629,43.71809906291835,39566.66666666667
65.53515394912985,59.3524765729585,43.7162248995984,39600.0
64.90973333333334,59.52008000000001,43.109626666666664,39633.333333333336
65.42333572701399,59.59275512646612,43.63201148966729,39666.66666666666
65.00147849462365,59.51677419354839,43.08967741935484,39700.0
65.87142819450673,59.81034801192581,43.98783673254003,39733.333333333336
65.29393377483443,59.59851655629138,43.41192052980132,39766.66666666666
65.27949668874172,59.62190728476821,43.340768211920526,39800.0
65.66254304635761,59.67923178807947,43.75687417218544,39833.333333333336
65.214859437751,59.630066934404276,43.27057563587685,39866.66666666666
65.30704,59.55309333333334,43.44216,39900.0
64.68094992256066,59.01551503953482,42.684753960274975,39933.33333333333
64.72331059967937,59.118332744613205,42.945520745591395,39966.66666666667
64.7330652392468,59.13474445018068,42.95272124555064,40000.0
64.14795233529654,58.87075743048898,42.26379947952336,40033.33333333333
64.88468331386028,59.09126973344564,43.39975002037877,40066.66666666667
63.893463196376935,58.67242320074208,42.66770338844328,40100.0
64.32046300573322,58.50623590468168,43.043529060130965,40133.333333333336
64.1251705134501,58.64080318655536,42.705734708353795,40166.66666666666
64.1089376330005,58.60629126425494,42.6944126152671,40200.0
64.7653442303529,58.86826152846936,43.41597207187703,40233.333333333336
64.44131265815969,58.98217843105584,42.912588165616754,40266.66666666666
64.72153125504765,58.9202336725354,43.38970548645885,40300.0
64.22171859732929,58.49337748344371,42.76126370643796,40333.333333333336
65.11738209507466,59.119741534171645,43.82411454004343,40366.66666666666
64.73278911564626,58.614421768707494,43.303537414966,40400.0
65.45109933774836,59.8573774834437,44.003099337748345,40433.33333333333
65.63661333333333,59.74808,43.98773333333333,40466.66666666667
65.40160642570281,59.830923694779116,43.74246318607764,40500.0
65.82267549668873,59.855364238410594,44.34990728476821,40533.33333333333
65.04602409638554,59.80765729585007,43.696385542168684,40566.66666666667
65.18992526396978,59.95893507806058,43.87563499029229,40600.0
65.5763178807947,59.85154966887417,44.183099337748345,40633.333333333336
65.00422883587329,59.6914545599617,43.422192079576575,40666.66666666666
65.70335330600231,59.78855250709554,43.99650478292863,40700.0
64.62263945873978,58.87153221204793,42.731489280765146,40733.333333333336
65.341059602649,59.512211920529786,43.645430463576155,40766.66666666666
65.27088,59.34213333333334,43.47517333333333,40800.0
65.1139072847682,59.42304635761589,43.3838940397351,40833.333333333336
65.67209381462189,59.68916053713061,43.98120566447661,40866.66666666666
65.40898013245032,60.016370860927154,43.65398675496689,40900.0
65.34930666666666,59.383919999999996,43.44216,40933.33333333333
65.13531459170014,59.37135207496654,43.24578313253011,40966.66666666667
65.09574297188755,59.376171352074955,43.254243641231604,41000.0
65.56147849462366,59.42572580645161,43.80021505376344,41033.33333333333
64.80184738955823,59.41483266398929,43.09686746987952,41066.66666666667
65.59191050368064,59.77990026648373,43.935094060842715,41100.0
64.90346936566357,59.27040484953453,43.05566681099805,41133.333333333336
65.52224,59.71381333333333,43.9608,41166.66666666666
65.26881720430107,59.47981182795697,43.69209677419354,41200.0
64.94379032258064,59.53279569892472,43.51362903225807,41233.333333333336
65.26567603748326,59.401258366800526,43.85815261044176,41266.66666666666
64.4323537414966,58.84263945578232,42.67129251700681,41300.0
64.89497975708503,59.07489878542511,43.41921727395412,41333.333333333336
64.54723799690242,58.89522593266853,42.876423117680616,41366.66666666666
64.99145161290322,59.43766129032258,43.473440860215064,41400.0
65.19759575213607,59.2986981482979,43.35481523409072,41433.33333333333
64.91250909678986,59.36912751677853,42.91763025255384,41466.66666666667
64.15414415889126,58.65406231243521,42.48084792928466,41500.0
64.02840816326531,58.98345578231293,42.492653061224495,41533.33333333333
64.76083670715249,59.17133603238866,43.17074224021592,41566.66666666667
65.18478494623656,59.52744623655914,43.638037634408605,41600.0
64.60048780487803,59.22693766937671,42.93460704607046,41633.333333333336
64.99922245757031,59.260342654905216,43.60222001769579,41666.66666666666
65.11244926297799,59.75141529587695,43.6721053193762,41700.0
65.00455800734643,59.27608118615439,43.57189586293804,41733.333333333336
64.59650910260879,59.433225192374714,43.08676301042979,41766.66666666666
64.60278306566211,59.44362817384776,43.10443199184921,41800.0
65.38575504541528,60.078213752846644,44.061853781116675,41833.333333333336
65.31406641604009,60.22997598162072,44.04526942355889,41866.66666666666
65.56454325659624,60.015347419320925,44.047198570377375,41900.0
65.2196837944664,59.82097496706192,43.39209486166008,41933.33333333333
65.75842211344658,59.977514854854356,44.3765934612465,41966.66666666667
65.53767195767196,59.64328042328042,44.03748677248677,42000.0
65.14579865771812,59.59761073825504,43.51661744966443,42033.33333333333
65.1310067114094,59.17624161073826,43.427060402684575,42066.66666666667
65.08763052208836,59.55220883534136,43.22736278447122,42100.0
65.4516733601071,59.30829986613119,43.64077643908969,42133.333333333336
65.10216256524981,59.2102109300096,43.225977415574725,42166.66666666666
65.24116402116402,59.41227513227514,43.438121693121694,42200.0
65.67180500658762,59.49093544137023,44.06084321475626,42233.333333333336
65.46055242272347,59.96919381787803,44.11829051796157,42266.66666666666
65.65827291050441,59.82108734916106,44.2195377326388,42300.0
65.51922112873011,59.908788686314345,43.92575393789082,42333.333333333336
65.63883443708609,59.836847682119206,44.189801324503314,42366.66666666666
65.64513907284768,59.855019867549665,44.182304635761604,42400.0
65.5661200462525,59.974114369809726,43.96764953221906,42433.33333333333
65.73872509960161,59.701301460823366,44.06334661354582,42466.66666666667
65.34978835978836,59.92264550264551,43.75092592592594,42500.0
65.49981604120677,59.79399243140964,44.05350572900242,42533.33333333333
65.15902116402117,59.90835978835978,43.643253968253966,42566.66666666667
65.15920634920636,59.91301587301587,43.644629629629634,42600.0
65.41308274219303,60.097008088370025,44.16990812239878,42633.333333333336
65.114107011458,60.231183643435294,43.85751077472932,42666.66666666666
65.56631369259803,60.08916963724052,44.210369050115325,42700.0
65.49460054518768,60.36446319983225,44.117372614803934,42733.333333333336
65.74691938178779,60.28678467000835,44.370274644945695,42766.66666666666
65.64327762009881,60.116603595080406,44.20272259013981,42800.0
65.4012105263158,60.12005263157895,43.938815789473686,42833.333333333336
65.88163136925982,60.21361920738101,44.37982281400713,42866.66666666666
65.05333333333333,59.331935483870964,43.210537634408595,42900.0
65.60767720713073,59.67107915959253,43.921211799660426,42933.33333333333
64.96493804742576,59.652130954924154,43.28450117496261,42966.66666666667
64.98416470839564,59.65405362102115,43.30669194616535,43000.0
65.68580012650222,59.78958465106473,44.13427682901117,43033.33333333333
64.69199785177229,58.94095059076263,42.90190655209452,43066.66666666667
64.37988410596026,58.19776490066225,42.4194536423841,43100.0
63.955210468675396,58.01159754008592,41.8469012383814,43133.333333333336
64.19241245682514,57.97234000730111,42.20125803824661,43166.66666666666
64.26676442389036,58.04190400992612,42.27742372116632,43200.0
63.94445536491534,57.98688607452753,41.87742551458819,43233.333333333336
64.34201557261215,58.32533458948711,42.57502286015129,43266.66666666666
64.05571428571429,58.15826330532213,42.20577030812325,43300.0
64.54821576763486,58.50829875518672,42.76901798063624,43333.333333333336
64.70620108368453,59.09783263094521,42.891248426468174,43366.66666666666
64.7033003119698,59.10341524820755,42.91459142904056,43400.0
65.01305504288351,58.93724894148301,43.326050374552175,43433.33333333333
64.23211511732482,58.579211293707246,42.34777750524623,43466.66666666667
64.4905022756384,58.52530455400211,42.75063363584334,43500.0
64.15092222647912,58.709895462755185,42.416507033003114,43533.33333333333
64.47247003448089,58.610858737890645,42.78186744020579,43566.66666666667
64.70543209876543,58.85119341563786,43.00685871056241,43600.0
65.15975831772248,59.74776391124246,43.84092768000844,43633.333333333336
65.79516499582289,59.927970969089394,44.56960108604845,43666.66666666666
65.46708530117938,59.98015883485922,43.917706656816435,43700.0
65.62298959318828,59.93761168926732,44.38384316198886,43733.333333333336
65.40662777252182,59.85816777041943,44.13526227267949,43766.66666666666
65.40423630820982,59.87141280353201,44.08406916850626,43800.0
65.71264036855743,59.615815511870785,44.506216789257394,43833.333333333336
65.41750762115001,59.72077683170399,44.08533060023126,43866.66666666666
65.890742481203,59.980237050960724,44.6953320802005,43900.0
65.41885964912281,60.10654239766082,44.07649331662489,43933.33333333333
65.59299007931314,59.87042902389865,44.25314765856085,43966.66666666667
65.59702117634741,59.89181477894408,44.26825118446195,44000.0
65.05631767055608,59.82274256280879,43.890912435614425,44033.33333333333
65.06071999999999,59.19690666666666,43.74666666666667,44066.66666666667
64.70230254350736,59.31734939759036,43.32082998661312,44100.0
65.05682666666667,59.14504,43.66234666666666,44133.33333333334
65.2678061932309,59.716619113682185,43.781483129597156,44166.66666666666
65.28000418815276,59.70298144124807,43.806481166400545,44200.0
65.60225480920845,59.78905182382004,44.38494691474824,44233.33333333334
65.20083106090118,59.69980522010128,44.0385404492923,44266.66666666666
65.45874561745228,59.82036099207895,44.047941825736906,44300.0
65.27327696777739,59.83289270476141,43.77331623170955,44333.33333333334
65.72292751878125,59.76863073580609,44.28733345548778,44366.66666666666
65.70748813683058,59.73778484643061,44.29624028784482,44400.0
65.14572164406601,59.77202249553242,43.40733732786713,44433.33333333333
65.77584772207197,59.95347930101934,44.258867276887855,44466.66666666667
65.27534486820407,59.810590791299106,43.70337408056959,44500.0
65.50315357931252,59.56428045832019,44.03447913381688,44533.33333333333
65.29112582781457,59.84966887417218,43.69655629139073,44566.66666666667
65.31501986754967,59.84172185430463,43.73756291390728,44600.0
65.2539163275619,59.51549243330939,43.74954121120242,44633.33333333334
64.9936712240974,59.61653492843409,43.402531510361044,44666.66666666666
64.90305820276745,59.34092499865397,43.39686641899532,44700.0
64.89136936552019,59.67074343089086,43.42955565050203,44733.33333333334
64.84086720867208,59.19934959349594,43.07436314363144,44766.66666666666
64.84062330623306,59.21178861788618,43.079512195121964,44800.0
64.56211477879742,59.037529105601976,42.86818244076153,44833.33333333334
65.48798333689382,59.40870006408887,44.19109164708396,44866.66666666666
64.67376693766936,58.84967479674797,43.20986449864499,44900.0
65.26680107526882,59.18583333333334,43.82814516129032,44933.33333333333
65.11151463362529,59.53767891476181,43.60705511642811,44966.66666666667
65.13952864841676,59.60388234978684,43.66292195082714,45000.0
65.02541759390836,59.10271603614231,43.67434378100115,45033.33333333333
64.74839799447676,59.192401533635405,43.27929860310481,45066.66666666667
64.90528199102756,59.118671224097405,43.420556505020286,45100.0
64.75531685780436,59.20427502288268,43.14041888763259,45133.33333333334
64.8910569105691,59.04677506775068,43.370542005420056,45166.66666666666
65.02088639836984,59.13615036061882,43.52575274150736,45200.0
64.73361869380284,59.10272976901955,43.439724331018155,45233.33333333334
64.57172789115647,58.456,43.21278911564626,45266.66666666666
64.29724043715846,58.6187431693989,42.780027322404365,45300.0
64.64680327868852,58.5498087431694,43.33226775956285,45333.33333333334
63.75847211865109,58.02681801861519,42.283122048222715,45366.66666666666
63.877311385459535,58.21657064471879,42.4963511659808,45400.0
63.82896999278939,57.43621387764159,42.137417494037386,45433.33333333333
63.93174211248285,58.06529492455417,42.56971193415639,45466.66666666667
64.45022038567494,58.0576308539945,43.06228650137741,45500.0
64.03572016460906,58.08803840877914,42.76458161865568,45533.33333333333
64.27709190672154,58.09368998628258,43.00041152263376,45566.66666666667
64.23084699453553,58.06150273224043,42.96762295081968,45600.0
63.99111111111111,58.17390946502058,42.50973936899863,45633.33333333334
64.05251366120218,58.22428961748634,42.64073770491803,45666.66666666666
63.73703703703704,58.4965157750343,42.205157750342934,45700.0
64.40819672131147,58.87038251366121,42.85609289617487,45733.33333333334
63.63145010452195,58.14556056771922,41.83513037737925,45766.66666666666
63.60331169545605,58.14333259984597,41.80833975134778,45800.0
65.2972153514721,59.44445330992846,43.826378361126615,45833.33333333334
64.95409092108387,59.826231497849655,43.62375662911269,45866.66666666666
65.44925791168235,59.849017092898464,44.341805617359896,45900.0
65.15907127712484,59.900348140198425,43.95539617307541,45933.33333333333
65.44803671064297,59.6653804036085,44.42683944308285,45966.66666666667
65.5038327162747,59.646112530635655,44.45186942691766,46000.0
65.24275025799794,59.83795149638804,44.203276573787406,46033.33333333333
65.55355373624654,59.646451478333425,44.24148719820619,46066.66666666667
65.19434843407825,59.66214611751669,43.750085749716355,46100.0
65.53401324503311,59.824026490066224,43.996768211920525,46133.33333333334
65.03188421277505,59.62104785302286,43.36426511429182,46166.66666666666
65.04713202307201,59.62668233283486,43.3124866481521,46200.0
65.21056411074763,59.654166334211006,43.60440437245671,46233.33333333334
64.49414304993253,59.19894736842105,42.71948717948718,46266.66666666666
64.6260433604336,58.74972899728997,42.76308943089431,46300.0
64.30982565211515,59.11517772671983,42.53926206244087,46333.33333333334
64.92343724761751,59.302293652075605,43.37549130458192,46366.66666666666
64.95566144403166,59.29933236418457,43.43635923114198,46400.0
64.93275598573611,59.729683352548456,43.80148537415878,46433.33333333333
64.83425101214576,59.04483130904186,43.36736842105264,46466.66666666667
64.26059863945578,58.72892517006804,42.88133333333335,46500.0
64.49504761904763,58.81899319727891,43.17461224489796,46533.33333333333
64.21158469945354,58.96057377049181,42.681065573770496,46566.66666666667
64.23986338797815,58.96153005464481,42.69838797814208,46600.0
64.41838797814208,58.995491803278675,42.961120218579225,46633.33333333334
64.57338609809939,59.48158617347763,43.2063748452054,46666.66666666666
65.01385041551247,59.486096313658635,43.78140315363306,46700.0
64.647418295375,59.411242125666284,43.29139072847682,46733.33333333334
64.65207650273224,58.84278688524589,43.15448087431694,46766.66666666666
65.05393197278912,59.23989115646259,43.60514285714286,46800.0
64.53292847503374,59.04944669365722,43.341214574898785,46833.33333333334
64.43178861788618,58.6040921409214,43.496043360433596,46866.66666666666
64.63962248974447,59.29383060299756,43.58870686650401,46900.0
64.64268023474935,58.75668981855382,43.375464383782905,46933.33333333333
64.70008311660455,59.10094645681959,43.42317076440464,46966.66666666667
64.4045141235302,58.75215569671578,43.01519124205974,47000.0
64.67257452574526,58.45539295392954,42.89712737127371,47033.33333333333
64.33689795918367,58.62677551020408,42.516462585034006,47066.66666666667
64.50821768707482,58.67662585034014,42.836054421768715,47100.0
63.693551912568296,58.45584699453552,42.05617486338797,47133.33333333334
64.09625683060109,58.43890710382514,42.21398907103825,47166.66666666666
64.17871584699455,58.44385245901639,42.29169398907104,47200.0
63.881448087431686,58.49377049180328,42.01311475409836,47233.33333333334
64.4313387978142,58.28248633879782,42.54300546448089,47266.66666666666
63.93305785123968,58.4130303030303,42.093415977961435,47300.0
64.4908299319728,58.628952380952384,42.93268027210885,47333.33333333334
64.10626016260163,58.740162601626025,42.44650406504065,47366.66666666666
64.11452574525745,58.725338753387526,42.454959349593494,47400.0
65.09313907284768,59.52651655629139,43.73660927152318,47433.33333333333
65.39517716535433,60.07027041027765,43.869327600497314,47466.66666666667
65.73844799005386,59.956304392871935,44.1961510567758,47500.0
65.32306930176775,59.87758773530794,43.56309641758357,47533.33333333333
65.34224867724868,59.68851851851852,43.61219576719578,47566.66666666667
65.58424731042065,60.03363610187682,44.006256053189546,47600.0
65.06759259259259,59.778835978835964,43.19026455026455,47633.33333333334
65.38626984126985,59.67452380952381,43.6326455026455,47666.66666666666
65.01243386243387,59.623677248677254,43.328148148148145,47700.0
65.57209572306799,59.77604812537928,44.086594021265924,47733.33333333334
65.14105960264901,59.8936953642384,43.563788079470214,47766.66666666666
65.11480794701987,59.913059602649014,43.5957880794702,47800.0
65.74412315373414,59.961696484293746,44.37083940087373,47833.33333333334
64.94094800253646,59.734622701331645,43.480051786091735,47866.66666666666
65.70226315789472,60.013868421052635,44.32139473684211,47900.0
64.68096629755745,59.30112341475186,43.01833927661743,47933.33333333333
64.94306233062329,59.199132791327905,43.216178861788606,47966.66666666667
64.94382113821139,59.214146341463405,43.216964769647696,48000.0
64.61770580296896,59.153927125506065,42.78515519568151,48033.33333333333
65.7800377437618,60.15852379953869,43.921576850492784,48066.66666666667
65.33007936507937,60.05187830687831,43.406216931216925,48100.0
65.70808575242782,60.02895060597336,44.14606182760517,48133.33333333334
65.29198993499686,60.16387083245965,43.7641539106731,48166.66666666666
65.0536786188579,59.82180610889775,43.39798140770253,48200.0
65.87622217599333,60.212866652798006,44.48731017266486,48233.33333333334
65.2005453837164,59.97104272172445,43.72652902220491,48266.66666666666
65.65517064144737,60.09721936677632,44.06504420230264,48300.0
65.27285289669918,60.001720811388644,43.51321896021275,48333.33333333334
65.59165510561998,59.83482972541424,43.739418370285065,48366.66666666666
65.62160039787453,59.8518440960134,43.76802868884643,48400.0
64.99433112582781,59.80238410596026,43.064291390728464,48433.33333333333
64.97997300944671,59.26345479082321,42.98968960863698,48466.66666666667
64.75795770134586,59.38618884853664,42.681131168553726,48500.0
65.6053774834437,59.98288741721854,44.063973509933774,48533.33333333333
65.63515559732664,60.34855367585629,44.04607873851295,48566.66666666667
65.59374349906386,60.30588204701477,43.980471187851045,48600.0
65.6147729050425,59.94003233039579,44.17656567763467,48633.33333333334
65.37203884511688,59.85603224877628,43.92908933853362,48666.66666666666
65.62782152230972,59.593622047244104,44.31721784776903,48700.0
65.25238095238096,59.75870370370371,44.10920634920635,48733.33333333334
65.59541964591963,59.72475660272816,44.33962164586686,48766.66666666666
65.73221998272389,59.8470277203361,44.53959113158653,48800.0
65.4109886658116,60.0129832735649,43.804203858335725,48833.33333333334
65.8813709174121,60.130746827543156,44.48008113168296,48866.66666666666
65.62847222222221,60.19932644110276,44.318086883876354,48900.0
65.92763157894737,59.99746166597596,44.74311023622047,48933.33333333333
65.59863240779113,59.885697264815576,44.075839204309986,48966.66666666667
65.58065015479876,59.9343653250774,44.09772961816305,49000.0
65.89732697886448,60.095291131371724,44.581874222958966,49033.33333333333
65.58201581027667,60.06178489702518,44.254082587892654,49066.66666666667
65.91630116959064,60.121632205513784,44.781041144527975,49100.0
65.32806522255349,59.826257882377774,43.87396110920556,49133.33333333334
65.68884725996675,59.787235165299066,44.44616237038601,49166.66666666666
65.40654304635761,59.47880794701986,44.11907284768211,49200.0
64.8471235937126,59.67722545812389,43.53448230006117,49233.33333333334
65.1766802308572,59.6654964227772,43.80233516848852,49266.66666666666
64.90957206308677,59.7410569430038,43.63951168914068,49300.0
65.36287652211065,59.708235419782106,43.99401837214272,49333.33333333334
64.69077941925623,59.39609083840523,43.14931495830764,49366.66666666666
64.67337855591602,59.40148001179719,43.13824168163659,49400.0
65.09668337936027,59.36509638844946,43.52288387805989,49433.33333333333
64.82259193452862,59.45724977117321,43.34687449523502,49466.66666666667
64.98640641338444,59.342225916293536,43.53902458642786,49500.0
64.37705095283147,58.97088795783213,42.90758210568996,49533.33333333333
64.96902371288186,59.16631061738945,43.7029213843196,49566.66666666667
64.70370968610348,58.83494858127389,43.35438539815862,49600.0
64.6605159154027,59.28100299081393,43.171704763939324,49633.33333333334
65.85555033416875,60.23329156223893,44.510312238930645,49666.66666666666
65.41517302113552,60.268882096974714,43.84091380024865,49700.0
65.64167865953947,60.04384251644736,44.006604646381575,49733.33333333334
65.39538437629507,60.04517198508081,43.66004455035226,49766.66666666666
65.43231225296442,60.08440815477429,43.719653630122735,49800.0
65.70305996911237,59.77719027301522,43.97395492500589,49833.33333333334
65.40410438970761,59.876999188545405,43.58914221396226,49866.66666666666
65.57642069994503,59.90568803497108,44.150590267780025,49900.0
65.16823286129362,59.92830405989058,43.73512551370312,49933.33333333333
65.57951496388029,60.028844169246646,44.270820433436526,49966.66666666667
65.5808336579665,59.85318789767562,44.15512271133618,50000.0
65.34566939358524,59.98524866900402,43.85508375535645,50033.33333333333
65.72391732283464,60.09065478657272,44.40162660588479,50066.66666666667
65.36196110253121,59.91589665733058,43.869931680758064,50100.0
65.66031044407895,60.06833367598684,44.306923314144726,50133.33333333334
65.13427268959799,60.22697368421052,43.84031806879403,50166.66666666666
65.15398363033567,60.22262225445503,43.840240364691255,50200.0
65.59179197994986,60.13116123642439,44.207628446115294,50233.33333333334
65.26024847976515,60.230603900188726,43.98380163556301,50266.66666666666
65.29463549562486,59.99563818186653,44.00045213968456,50300.0
64.8361530417996,59.84055017829852,43.27857468429096,50333.33333333334
65.15616321298867,59.636349070711404,43.61359752189703,50366.66666666666
65.45950690177929,59.97279182956993,43.96954706242187,50400.0
64.89772484511856,59.696058534501184,43.24449903866695,50433.33333333333
65.378119205298,59.91854304635761,43.759523178807946,50466.66666666667
64.94587160863064,59.68684575945311,43.23606067079685,50500.0
65.14851458815393,59.512593420037746,43.396499906912425,50533.33333333333
64.81778770711986,59.509588020958006,43.06907098593047,50566.66666666667
64.81584616612143,59.51482752200856,43.073326418255796,50600.0
65.3772723674837,59.7985277433313,43.857180549325896,50633.33333333334
65.04651467162265,59.84069313928226,43.62387770593933,50666.66666666666
65.27482524671052,59.979235197368425,44.140830592105246,50700.0
65.01799030088127,59.973327423476036,43.97038118579549,50733.33333333334
65.41297803837395,59.900897835248536,44.212862864172976,50766.66666666666
65.4282124440489,59.9152946103709,44.18414784179254,50800.0
65.01183709652186,59.823225739166716,43.69557282160922,50833.33333333334
65.34903018087586,59.864617961940155,44.046462319713115,50866.66666666666
65.00827160170668,59.96327513546057,43.63756773028297,50900.0
65.41101484176636,59.81425542496663,43.9117085045677,50933.33333333333
65.26419804451841,59.90799875182026,43.78788745579363,50966.66666666667
65.10787110959872,59.75643274088423,43.579640342381495,51000.0
65.56415123777822,59.98067921780736,44.15974100270439,51033.33333333333
65.2569459006081,59.89494652967079,43.67590165653177,51066.66666666667
65.74963738085371,59.95560505594696,44.3790406133444,51100.0
65.26965913800247,59.940426854537925,43.77807708246995,51133.33333333334
65.55455585604327,59.8487362180154,44.12585812356979,51166.66666666666
65.5834542063821,59.864017820140894,44.178797140489024,51200.0
65.32804840686275,60.063444648692816,44.0124591503268,51233.33333333334
65.7042419582212,60.002640010252456,44.33861335383827,51266.66666666666
65.26016511867904,59.7607585139319,43.81029411764707,51300.0
65.52445136995195,59.567043241137505,43.89902610050642,51333.33333333334
65.29236637313127,59.88306369035429,43.72342822035634,51366.66666666666
65.14881184261783,59.703129463706006,43.50879106609531,51400.0
65.48063887806778,59.67243215166861,43.950655758992326,51433.33333333333
65.32688532314215,59.87150223804414,43.78266104756171,51466.66666666667
65.63916446352381,59.724550427976865,44.420254953799436,51500.0
65.20171957671958,59.73645502645503,43.79082010582011,51533.33333333333
65.7955692210659,59.92938610322716,44.27391464311994,51566.66666666667
65.83132371177541,60.02247961795203,44.332603361388884,51600.0
65.41047932330828,60.21613930659983,43.82751148705096,51633.33333333334
65.79853279030911,60.09847535505429,44.25044381787803,51666.66666666666
65.57661583151778,60.34420064322026,44.01242348791367,51700.0
65.88792924577238,60.309497873223364,44.37745098039216,51733.33333333334
65.33578635323487,60.23015914291658,43.907738714374865,51766.66666666666
65.31464530892447,60.24843977532765,43.88384127314333,51800.0
65.75023896251517,60.34397685292826,44.49146193391717,51833.33333333334
65.30063717364277,60.235184417737244,43.74140074595939,51866.66666666666
65.62986270022883,60.191387559808604,44.164707717911384,51900.0
65.10737532808399,59.8827034120735,43.2749343832021,51933.33333333333
65.36765396047349,60.03853574594567,43.82625019554675,51966.66666666667
65.53102983837546,60.211562370493155,44.02483941152093,52000.0
65.19077540804089,60.021614433957346,43.49700161651978,52033.33333333333
65.50545454545454,59.58998682476943,43.85944664031621,52066.66666666667
65.12291005291006,59.61219576719578,43.47087301587303,52100.0
65.69718567251462,59.95384294068504,44.23579782790309,52133.33333333334
65.41278344081547,60.06045870605368,43.938891200332854,52166.66666666666
65.47606940658419,60.071555881736224,43.959661354581684,52200.0
65.765611946533,60.03519214703425,44.26986737677528,52233.33333333334
65.2645298013245,59.846860927152306,43.53570860927152,52266.66666666666
65.74240288220551,60.13097848788638,44.11390455304929,52300.0
65.20712311623299,59.97447463106847,43.53350367627889,52333.33333333334
65.82106307435255,60.064249164578115,44.158155806182116,52366.66666666666
65.85489766081871,60.063257101086045,44.15538847117794,52400.0
65.29696205192894,59.859113844213184,43.828156207295294,52433.33333333333
65.54074786769294,60.01750052007489,44.238818389848134,52466.66666666667
65.19036437033323,59.960581514999596,43.90541146671592,52500.0
65.41777041942605,59.481367602228524,44.3695206559445,52533.33333333333
65.07435761589403,59.60625165562914,43.957456953642385,52566.66666666667
65.0851655629139,59.60373509933775,43.95880794701986,52600.0
65.47041059602648,59.59194701986755,44.25944370860928,52633.33333333334
65.09907390306324,59.74343684863197,43.71607609297906,52666.66666666666
65.39083443708607,59.701112582781455,44.168211920529785,52700.0
64.83056505020295,59.46122623371075,43.445871608630625,52733.33333333334
65.24482034096651,59.30447618287721,43.75616372775871,52766.66666666666
65.31774781244182,59.282640495757846,43.74930184313412,52800.0
64.94824823755607,59.405922879726546,43.32340845973083,52833.33333333334
65.59272842405214,59.77705073744757,44.29252526318568,52866.66666666666
65.45392136467652,59.91169128354482,44.17310692739754,52900.0
65.65235714472686,59.77386592675968,44.167473758605354,52933.33333333333
65.23573122529645,59.66608695652174,43.66355731225296,52966.66666666667
65.23653439153439,59.6475925925926,43.60494708994709,53000.0
65.59154195129582,59.70608020023989,44.090629399801855,53033.33333333333
65.07815086920529,59.56444019039735,43.455349751655646,53066.66666666667
65.47970393455395,59.47012076353721,43.777924944812355,53100.0
65.23755019033217,59.575585336601144,43.54093445272984,53133.33333333334
65.53274756218387,59.602779371121656,43.97992386713251,53166.66666666666
65.37805931471351,59.44363008140722,43.769703949951584,53200.0
65.16200100261207,59.667185562386216,43.4781140339305,53233.33333333334
65.57369172834696,59.59106609531229,43.931203739774055,53266.66666666666
65.27950684501218,59.66845535690915,43.55189383032747,53300.0
65.76853592314119,59.917110484544686,44.08202798663325,53333.33333333334
65.29076001261431,59.83914117523389,43.55213917796699,53366.66666666666
65.30550299590034,59.825817302638505,43.55524019762429,53400.0
65.6639269167343,59.71714263277753,43.89589822788786,53433.33333333333
65.38348021066903,59.72727746779997,43.53360796787819,53466.66666666667
65.41015103525903,59.653639766510494,43.831924194435,53500.0
64.7447525334902,59.42803283510254,42.906628519479135,53533.33333333333
65.57518658677598,59.87093976663513,44.042809839167454,53566.66666666667
65.56772311573636,59.88465783664459,44.063360664354036,53600.0
65.06141333333333,59.67725333333333,43.32842666666666,53633.33333333334
65.36699337748344,59.79343046357616,43.78479470198676,53666.66666666666
64.7010752688172,59.36381720430108,42.97733870967742,53700.0
65.39017218543046,59.88174834437086,43.884741721854304,53733.33333333334
65.09162477725471,59.90592834915822,43.54413681214925,53766.66666666666
65.09861964413946,59.90050267294343,43.544030426341116,53800.0
65.58255012531328,60.07309941520466,44.32445697577276,53833.33333333334
65.25730705221552,60.00312044934471,44.006578947368425,53866.66666666666
65.36072394424797,60.11966923236946,44.313891200332854,53900.0
64.87498364002829,59.91762427034526,43.76344789676204,53933.33333333333
65.58743971482491,59.93520654225205,44.448521702663044,53966.66666666667
65.58646990983435,59.93811595722374,44.4500681484588,54000.0
65.174954248366,59.828444444444436,43.88802614379085,54033.33333333333
65.32860927152318,59.437430463576156,43.835258278145695,54066.66666666667
65.20485391628678,59.81076460837132,43.71459283050145,54100.0
65.41448088856444,59.707722792929026,44.039396151639984,54133.33333333334
65.19471241591489,59.665849715805386,43.9104395890911,54166.66666666666
65.19194868853315,59.691557595035725,43.892006048912755,54200.0
65.4598687664042,59.51766404199476,44.04482939632546,54233.33333333334
65.03085126137357,59.45937342494098,43.2218744197151,54266.66666666666
65.12093906254178,59.32522259953475,43.252306211396025,54300.0
64.87030872483221,59.30375838926175,42.92034899328859,54333.33333333334
65.06973448487929,59.29367095376882,43.12470921682398,54366.66666666666
65.20472483221478,59.33892617449665,43.27264429530202,54400.0
65.05442666666667,59.54162666666666,43.113279999999996,54433.33333333333
65.36053120849935,59.35694555112882,43.54143426294821,54466.66666666667
64.49993261637152,58.946281771380825,42.49834236273955,54500.0
65.0020634920635,59.346375661375674,43.31656084656085,54533.33333333333
63.97353323230136,58.64248213899112,42.17135743667461,54566.66666666667
64.40722891566264,59.18955823293173,42.727630522088354,54600.0
65.04071428571429,59.36603174603175,43.41817460317461,54633.33333333334
64.75835325365206,59.5464807436919,42.92486055776892,54666.66666666666
65.15554677206852,59.54737812911726,43.80021080368907,54700.0
64.69867197875166,59.57293492695883,43.324355909694546,54733.33333333334
64.8891798941799,59.505238095238106,43.50219576719578,54766.66666666666
64.96387782204515,59.566932270916325,43.592642762284186,54800.0
64.61713147410359,59.54021248339974,43.27697211155378,54833.33333333334
65.19317854618748,59.744313273826656,43.91191791220585,54866.66666666666
64.87233259749816,59.37388310732682,43.68198780616,54900.0
65.60935206542254,59.606966869364655,44.36627175508493,54933.33333333333
65.0089179705021,59.66966570802881,43.40732434500409,54966.66666666667
65.03234743146618,59.67285823593046,43.43745547610881,55000.0
65.36305110683095,59.62916545737579,43.76549431413419,55033.33333333333
64.96651803382495,59.77955726761826,43.34661354581673,55066.66666666667
65.37654481931479,59.7941805287584,43.89956718986287,55100.0
64.94393110488707,59.85969688244379,43.853597884982854,55133.33333333334
65.21751813308103,59.6007305792074,43.97382529170609,55166.66666666666
65.39677512237259,59.76904955108238,44.19739287490511,55200.0
65.08263748920243,59.88676281967386,43.65345653482711,55233.33333333334
65.48720472440945,59.99684003315375,44.12404164939909,55266.66666666666
65.23751820262117,59.9634647389224,44.17058456417725,55300.0
65.51033464566929,59.89069622876087,44.375259013675915,55333.33333333334
65.05000782186995,59.77971006935393,43.66209521823017,55366.66666666666
64.99109113844213,59.62338379060233,43.542967518133075,55400.0
65.58958720519331,59.71214302541686,44.19150328508234,55433.33333333333
64.97781982550194,59.48570377378324,43.72576999894881,55466.66666666667
65.40869634046595,59.57813778000581,43.93847128044115,55500.0
65.25191738868675,59.75200900452845,43.616941077925816,55533.33333333333
65.42323662356775,59.5679596341848,43.807894460212346,55566.66666666667
65.40195796141664,59.523571447268544,43.76946836635865,55600.0
64.83441370223979,59.42656126482213,43.09781291172595,55633.33333333334
65.17834645669292,59.591049868766405,43.729343832021,55666.66666666666
64.97868247694335,59.58050065876153,43.41646903820817,55700.0
65.3472016621218,59.84981171276457,43.85721334891572,55733.33333333334
65.18381394378683,59.85586900975128,43.60530844240497,55766.66666666666
65.20271679616208,59.846508838713035,43.635631224904834,55800.0
65.52516818050938,59.922440646022565,43.924325314765866,55833.33333333334
65.3311781797241,59.88935423919588,43.86600528754285,55866.66666666666
65.68344370860926,59.726269315673285,44.7319309180626,55900.0
65.28817108604036,59.745438839881686,44.35884616391383,55933.33333333333
65.60288366272097,59.60038066433749,44.616676226729936,55966.66666666667
65.62150370081807,59.62703544994156,44.66090118166471,56000.0
65.28611868588493,59.59213089209193,44.10442799636411,56033.33333333333
65.46540126192835,59.64115867966836,44.1708035667727,56066.66666666667
65.20956469387221,59.83124361961104,43.81663743685051,56100.0
65.46117745215624,59.75958179068676,44.04270740991814,56133.33333333334
65.04268133701831,59.85438285446108,43.881811545080055,56166.66666666666
65.02049329926474,59.86348229650103,43.90543359232415,56200.0
65.42211344658797,59.882600842865756,44.40886841347538,56233.33333333334
64.82353254075906,59.51368387457114,43.52402989441208,56266.66666666666
65.25329801324503,59.38924503311257,43.72627814569536,56300.0
65.36947368421053,60.069263157894746,43.75757894736842,56333.33333333334
65.29196787148594,59.382008032128496,43.70516733601071,56366.66666666666
65.61822045152721,59.640610889774244,44.092536520584325,56400.0
65.07811420982736,59.72833997343957,43.582682602921636,56433.33333333332
65.71444650943644,59.9612072350339,44.0903332199042,56466.66666666668
65.0543597422391,59.44605470734511,43.24198507981497,56500.0
65.52455080340887,59.8914804358724,43.8607688451492,56533.33333333332
65.00013369341426,59.637557153934594,42.979224043423606,56566.66666666668
64.9915505762186,59.62988315195593,43.00104280863125,56600.0
65.57083003952569,59.78990777338603,43.63177865612649,56633.33333333334
65.12273572377158,59.629694555112884,43.18884462151394,56666.66666666666
65.46637698610057,59.62926995262153,43.643247912467615,56700.0
65.22508563899868,59.6733069828722,43.27820816864296,56733.33333333334
65.5133860342556,59.71038208168643,43.67241106719368,56766.66666666666
65.32715457547673,59.34917971662938,43.351683178864384,56800.0
65.03761904761905,59.56714285714286,43.135873015873024,56833.33333333334
65.24007821170004,59.433018020398464,43.62915499656503,56866.66666666666
65.04303326963851,59.94181085255085,43.539407899903146,56900.0
65.1744708994709,59.456428571428575,43.66518518518519,56933.33333333332
65.13167325428195,59.61660079051384,43.75249011857708,56966.66666666668
65.10272784610532,59.62251655629139,43.76618837380428,57000.0
65.64290556395683,59.64407884444908,44.23723731553424,57033.33333333332
65.11145274886998,59.60483023231368,43.666745506149475,57066.66666666668
65.33259259259259,59.50224867724868,43.729920634920646,57100.0
65.05501976284584,59.79897233201582,43.45718050065877,57133.33333333334
65.32066645642804,59.89771891096394,43.706296646694,57166.66666666666
65.34678860506675,59.886760222852935,43.725743719121205,57200.0
65.20959086982697,60.09067350731618,43.544355155354296,57233.33333333334
65.60374839672278,59.905216867785256,43.930738423684005,57266.66666666666
65.23611514208068,59.796285058441725,43.4355821746128,57300.0
65.72208988822868,59.850142658953494,44.06240347616679,57333.33333333334
65.17795484727756,59.588525896414346,43.33317397078353,57366.66666666666
65.25981333333333,59.625733333333336,43.38074666666667,57400.0
65.76295055362145,59.80263330104965,43.980420385833575,57433.33333333332
65.46255529670445,59.92686438237835,43.565165039394806,57466.66666666668
65.74570059942937,59.88731251472398,43.92050362536974,57500.0
65.36690324793541,59.87681063824173,43.43457956254453,57533.33333333332
65.48657100809419,59.76913171449596,43.78022180174498,57566.66666666668
65.2722119205298,59.467311258278144,43.55931125827814,57600.0
64.91941275033909,59.59368600228729,43.128407670416756,57633.33333333334
65.59302810658603,59.86569849298639,43.95867445377275,57666.66666666666
65.25733581132373,59.97277700704134,43.54178991178704,57700.0
65.37493333333333,59.729519999999994,43.61698666666667,57733.33333333334
65.13293333333333,59.72784,43.33050666666666,57766.66666666666
65.09907038512617,59.675883134130146,43.258379814077024,57800.0
65.31420626219952,59.50854300917137,43.61873312120645,57833.33333333334
65.05246031746032,59.880687830687826,43.63343915343916,57866.66666666666
65.43046357615893,59.7192158518245,43.91733727342286,57900.0
65.02002585683755,59.72639244347115,43.6210917917733,57933.33333333332
65.03060846560847,59.50410052910053,43.659153439153435,57966.66666666668
65.12403718459495,59.521328021248344,43.73768924302789,58000.0
64.82248,59.63685333333334,43.41141333333334,58033.33333333332
65.3939072847682,59.75284768211921,43.879867549668866,58066.66666666668
65.06473895582329,59.76923694779118,43.41095046854083,58100.0
65.19081879194631,59.541610738255045,43.46416107382552,58133.33333333334
64.78088353413655,59.42144578313253,43.175823293172684,58166.66666666666
