Time[ms],HR[bpm]
833,56.96202
867,56.96202
900,72.4138
933,72.0
967,82.28571
1000,83.50516
1033,83.93782
1067,83.93782
1100,84.81676
1133,94.24084
1167,94.24084
1200,104.2105
1233,104.2105
1267,104.2105
1300,104.2105
1333,104.2105
1367,104.2105
1400,104.2105
1433,104.2105
1467,104.2105
1500,104.7619
1533,104.7619
1567,105.3191
1600,105.3191
1633,105.3191
1667,105.3191
1700,105.8824
1733,105.8824
1767,105.8824
1800,105.8824
1833,109.0909
1867,109.0909
1900,109.0909
1933,118.1818
1967,118.1818
2000,118.1818
2033,118.1818
2067,121.3483
2100,121.3483
2133,121.3483
2167,121.3483
2200,111.236
2233,123.1579
2267,123.1579
2300,123.1579
2333,123.1579
2367,123.1579
2400,123.1579
2433,123.1579
2467,123.1579
2500,123.1579
2533,123.1579
2567,123.1579
2600,123.1579
2633,123.1579
2667,124.1379
2700,124.1379
2733,127.1739
2767,123.8095
2800,123.8095
2833,123.8095
2867,123.8095
2900,123.8095
2933,123.8095
2967,123.8095
3000,123.8095
3033,123.8095
3067,123.8095
3100,124.7525
3133,124.7525
3167,124.7525
3200,128.5714
3233,128.5714
3267,128.5714
3300,128.5714
3333,128.5714
3367,128.5714
3400,128.5714
3433,128.5714
3467,128.5714
3500,129.8969
3533,128.5714
3567,128.5714
3600,128.5714
3633,128.5714
3667,128.5714
3700,128.5714
3733,128.5714
3767,128.5714
3800,128.5714
3833,128.5714
3867,128.5714
3900,128.5714
3933,128.5714
3967,128.5714
4000,129.2308
4033,129.2308
4067,129.2308
4100,129.2308
4133,129.2308
4167,129.2308
4200,129.8969
4233,129.8969
4267,129.8969
4300,129.8969
4333,130.7263
4367,130.7263
4400,130.7263
4433,130.5699
4467,130.5699
4500,130.5699
4533,130.5699
4567,130.5699
4600,130.5699
4633,130.5699
4667,130.5699
4700,130.5699
4733,130.5699
4767,130.5699
4800,130.5699
4833,131.4607
4867,131.4607
4900,131.4607
4933,131.4607
4967,129.8969
5000,129.8969
5033,129.8969
5067,129.8969
5100,129.8969
5133,129.8969
5167,129.8969
5200,129.8969
5233,129.8969
5267,129.8969
5300,129.8969
5333,131.4607
5367,131.4607
5400,131.4607
5433,131.25
5467,131.25
5500,131.25
5533,131.25
5567,131.25
5600,131.25
5633,131.25
5667,131.25
5700,131.25
5733,121.875
5767,121.875
5800,121.2435
5833,121.875
5867,122.7273
5900,122.7273
5933,122.7273
5967,121.875
6000,121.875
6033,121.875
6067,121.875
6100,121.875
6133,121.875
6167,121.875
6200,121.875
6233,121.875
6267,121.875
6300,121.875
6333,121.875
6367,121.875
6400,122.0339
6433,122.5131
6467,122.5131
6500,122.5131
6533,122.5131
6567,122.5131
6600,122.5131
6633,122.5131
6667,122.5131
6700,122.5131
6733,121.875
6767,121.2435
6800,120.6186
6833,120.6186
6867,120.0
6900,119.337
6933,119.337
6967,119.337
7000,119.337
7033,119.337
7067,119.337
7100,119.337
7133,119.337
7167,119.337
7200,119.337
7233,119.337
7267,119.337
7300,119.337
7333,109.3923
7367,107.7844
7400,107.7844
7433,102.5907
7467,102.5907
7500,102.5907
7533,102.5907
7567,102.5907
7600,102.5907
7633,102.5907
7667,102.5907
7700,102.5907
7733,102.5907
7767,102.5907
7800,102.5907
7833,100.5587
7867,100.5587
7900,100.5587
7933,100.5587
7967,100.5587
8000,100.5587
8033,100.5587
8067,100.5587
8100,100.5587
8133,100.5587
8167,100.5587
8200,100.5587
8233,100.5587
8267,100.5587
8300,102.5316
8333,102.5316
8367,102.5316
8400,102.5316
8433,102.5316
8467,102.5316
8500,102.5316
8533,102.5316
8567,102.5316
8600,102.5316
8633,102.5316
8667,102.5316
8700,91.83673
8733,102.5316
8767,90.90909
8800,90.90909
8833,102.5316
8867,89.55224
8900,89.55224
8933,89.55224
8967,89.55224
9000,77.41936
9033,77.41936
9067,77.41936
9100,77.41936
9133,77.41936
9167,77.41936
9200,77.41936
9233,77.41936
9267,77.41936
9300,77.41936
9333,77.41936
9367,77.41936
9400,77.41936
9433,77.41936
9467,77.41936
9500,73.25581
9533,73.25581
9567,73.25581
9600,73.25581
9633,73.25581
9667,73.25581
9700,73.25581
9733,73.25581
9767,73.25581
9800,73.25581
9833,71.64179
9867,71.64179
9900,71.64179
9933,71.64179
9967,67.37968000000001
10000,67.37968000000001
10033,67.37968000000001
10067,67.37968000000001
10100,67.37968000000001
10133,67.37968000000001
10167,67.37968000000001
10200,67.37968000000001
10233,67.37968000000001
10267,67.37968000000001
10300,67.37968000000001
10333,67.37968000000001
10367,67.37968000000001
10400,67.37968000000001
10433,66.25766999999999
10467,66.25766999999999
10500,66.25766999999999
10533,66.25766999999999
10567,66.25766999999999
10600,66.25766999999999
10633,66.25766999999999
10667,66.25766999999999
10700,66.25766999999999
10733,66.25766999999999
10767,66.25766999999999
10800,66.25766999999999
10833,66.25766999999999
10867,66.25766999999999
10900,66.25766999999999
10933,66.25766999999999
10967,66.25766999999999
11000,66.25766999999999
11033,66.25766999999999
11067,55.21473
11100,55.21473
11133,55.21473
11167,55.21473
11200,56.25
11233,60.0
11267,60.0
11300,60.0
11333,60.0
11367,60.0
11400,60.0
11433,60.0
11467,60.0
11500,60.0
11533,60.0
11567,60.0
11600,60.0
11633,60.0
11667,60.0
11700,60.0
11733,60.0
11767,60.0
11800,60.0
11833,60.0
11867,60.0
11900,60.0
11933,60.0
11967,60.0
12000,60.0
12033,60.0
12067,60.0
12100,60.0
12133,60.0
12167,60.0
12200,60.0
12233,60.0
12267,60.0
12300,60.0
12333,60.0
12367,60.0
12400,48.91304
12433,48.91304
12467,48.91304
12500,48.91304
12533,48.91304
12567,48.91304
12600,48.91304
12633,44.44444
12667,44.44444
12700,44.44444
12733,44.44444
12767,44.44444
12800,44.44444
12833,44.44444
12867,44.44444
12900,44.44444
12933,44.44444
12967,44.44444
13000,44.44444
13033,44.44444
13067,46.15385
13100,45.91837
13133,45.91837
13167,45.91837
13200,45.91837
13233,45.91837
13267,45.68528
13300,45.68528
13333,45.68528
13367,42.35294
13400,42.35294
13433,42.35294
13467,42.35294
13500,42.35294
13533,42.35294
13567,42.35294
13600,42.35294
13633,42.35294
13667,42.35294
13700,42.35294
13733,42.35294
13767,42.35294
13800,42.35294
13833,42.35294
13867,42.35294
13900,42.35294
13933,42.35294
13967,42.35294
14000,42.35294
14033,42.35294
14067,42.35294
14100,42.35294
14133,42.35294
14167,42.35294
14200,42.35294
14233,42.35294
14267,40.90909
14300,42.85714
14333,40.90909
14367,42.35294
14400,42.35294
14433,42.35294
14467,42.35294
14500,42.35294
14533,42.35294
14567,42.35294
14600,42.35294
14633,42.35294
14667,42.35294
14700,42.35294
14733,42.35294
14767,42.35294
14800,42.35294
14833,42.35294
14867,42.35294
14900,42.35294
14933,42.35294
14967,42.35294
15000,42.35294
15033,42.35294
15067,42.35294
15100,42.35294
15133,42.35294
15167,42.35294
15200,52.94118
15233,52.94118
15267,52.94118
15300,52.32558
15333,52.32558
15367,52.32558
15400,53.20197
15433,53.20197
15467,53.73134
15500,53.73134
15533,53.89222
15567,53.89222
15600,53.89222
15633,53.89222
15667,53.89222
15700,53.89222
15733,53.89222
15767,53.89222
15800,53.89222
15833,53.89222
15867,53.89222
15900,53.89222
15933,53.89222
15967,53.89222
16000,53.89222
16033,53.89222
16067,53.89222
16100,54.87805
16133,54.87805
16167,54.87805
16200,54.87805
16233,54.87805
16267,56.84211
16300,56.84211
16333,56.84211
16367,56.84211
16400,56.84211
16433,56.84211
16467,56.84211
16500,56.84211
16533,56.84211
16567,56.84211
16600,56.84211
16633,56.84211
16667,56.84211
16700,56.84211
16733,56.84211
16767,54.21686999999999
16800,54.21686999999999
16833,54.21686999999999
16867,54.21686999999999
16900,54.21686999999999
16933,54.21686999999999
16967,54.21686999999999
17000,54.21686999999999
17033,54.21686999999999
17067,54.21686999999999
17100,54.21686999999999
17133,54.21686999999999
17167,54.21686999999999
17200,54.21686999999999
17233,54.21686999999999
17267,54.21686999999999
17300,54.21686999999999
17333,54.21686999999999
17367,54.21686999999999
17400,54.21686999999999
17433,53.73134
17467,53.73134
17500,53.73134
17533,53.73134
17567,54.87805
17600,54.87805
17633,54.87805
17667,54.87805
17700,54.87805
17733,54.87805
17767,54.87805
17800,54.87805
17833,54.87805
17867,54.87805
17900,54.87805
17933,54.87805
17967,54.87805
18000,54.87805
18033,54.87805
18067,54.87805
18100,54.87805
18133,54.87805
18167,54.87805
18200,54.87805
18233,54.87805
18267,54.87805
18300,54.87805
18333,54.87805
18367,54.87805
18400,54.87805
18433,54.87805
18467,54.87805
18500,54.87805
18533,54.87805
18567,54.87805
18600,54.87805
18633,54.0
18667,54.0
18700,54.0
18733,54.0
18767,54.0
18800,54.21686999999999
18833,54.21686999999999
18867,54.21686999999999
18900,54.21686999999999
18933,54.21686999999999
18967,54.21686999999999
19000,54.21686999999999
19033,54.21686999999999
19067,54.21686999999999
19100,54.21686999999999
19133,54.21686999999999
19167,54.54546
19200,54.54546
19233,54.54546
19267,54.54546
19300,54.54546
19333,54.54546
19367,54.54546
19400,54.54546
19433,56.84211
19467,56.84211
19500,56.84211
19533,56.84211
19567,56.84211
19600,56.84211
19633,56.84211
19667,56.84211
19700,56.84211
19733,56.84211
19767,56.84211
19800,56.84211
19833,56.84211
19867,56.84211
19900,56.84211
19933,59.21053000000001
19967,59.21053000000001
20000,59.21053000000001
20033,59.21053000000001
20067,59.21053000000001
20100,59.21053000000001
20133,59.21053000000001
20167,59.21053000000001
20200,59.21053000000001
20233,59.21053000000001
20267,59.21053000000001
20300,59.21053000000001
20333,59.21053000000001
20367,59.21053000000001
20400,60.67416
20433,60.67416
20467,60.67416
20500,60.67416
20533,61.01695
20567,61.01695
20600,61.01695
20633,61.01695
20667,61.01695
20700,61.01695
20733,61.01695
20767,61.01695
20800,61.01695
20833,61.01695
20867,61.01695
20900,61.01695
20933,61.01695
20967,61.01695
21000,61.01695
21033,63.0
21067,63.0
21100,63.0
21133,63.0
21167,63.0
21200,63.52941
21233,63.52941
21267,63.52941
21300,63.52941
21333,63.52941
21367,63.52941
21400,63.52941
21433,63.52941
21467,63.52941
21500,63.52941
21533,63.52941
21567,63.52941
21600,63.52941
21633,63.52941
21667,63.52941
21700,63.52941
21733,63.52941
21767,63.52941
21800,63.52941
21833,63.52941
21867,63.52941
21900,63.52941
21933,63.52941
21967,63.63636
22000,63.63636
22033,63.63636
22067,63.63636
22100,63.63636
22133,63.63636
22167,63.63636
22200,63.15789
22233,63.15789
22267,63.15789
22300,63.15789
22333,63.15789
22367,63.15789
22400,63.15789
22433,63.15789
22467,63.15789
22500,63.15789
22533,63.15789
22567,63.15789
22600,63.15789
22633,63.15789
22667,63.15789
22700,63.15789
22733,63.15789
22767,65.28497
22800,65.28497
22833,65.28497
22867,65.28497
22900,65.28497
22933,65.28497
22967,65.28497
23000,65.28497
23033,65.28497
23067,65.28497
23100,72.48321999999997
23133,72.48321999999997
23167,72.48321999999997
23200,76.82927
23233,72.48321999999997
23267,72.48321999999997
23300,72.48321999999997
23333,75.0
23367,75.0
23400,75.0
23433,75.0
23467,75.0
23500,75.0
23533,75.0
23567,75.0
23600,75.0
23633,75.0
23667,75.0
23700,75.0
23733,75.0
23767,75.0
23800,75.0
23833,75.0
23867,75.0
23900,75.0
23933,75.0
23967,75.0
24000,75.0
24033,75.0
24067,75.0
24100,75.0
24133,75.0
24167,74.6114
24200,74.6114
24233,74.6114
24267,74.6114
24300,74.6114
24333,74.6114
24367,74.6114
24400,75.0
24433,75.0
24467,75.0
24500,75.0
24533,75.0
24567,75.0
24600,75.4491
24633,75.4491
24667,75.4491
24700,75.4491
24733,75.90361999999998
24767,75.90361999999998
24800,76.36364
24833,76.82927
24867,76.82927
24900,77.30060999999998
24933,76.82927
24967,76.19048000000002
25000,76.19048000000002
25033,76.19048000000002
25067,76.19048000000002
25100,76.19048000000002
25133,76.19048000000002
25167,76.19048000000002
25200,76.19048000000002
25233,85.71429
25267,85.71429
25300,90.0
25333,90.0
25367,90.0
25400,90.0
25433,90.0
25467,92.04546
25500,92.04546
25533,92.04546
25567,92.04546
25600,92.04546
25633,92.04546
25667,92.04546
25700,92.04546
25733,114.8936
25767,112.5
25800,112.5
25833,112.5
25867,112.5
25900,112.5
25933,112.5
25967,112.5
26000,112.5
26033,112.5
26067,112.5
26100,112.5
26133,112.5
26167,112.5
26200,112.5
26233,112.5
26267,120.6704
26300,120.0
26333,120.0
26367,120.0
26400,120.0
26433,120.0
26467,130.0
26500,130.0
26533,130.0
26567,130.0
26600,130.0
26633,130.0
26667,131.9372
26700,131.9372
26733,131.9372
26767,131.9372
26800,131.9372
26833,131.9372
26867,131.9372
26900,131.9372
26933,131.9372
26967,131.9372
27000,131.9372
27033,131.9372
27067,133.0049
27100,133.0049
27133,141.57299999999995
27167,141.57299999999995
27200,141.57299999999995
27233,141.57299999999995
27267,141.57299999999995
27300,141.57299999999995
27333,140.7821
27367,140.7821
27400,140.7821
27433,140.7821
27467,142.1053
27500,142.1053
27533,141.8719
27567,150.7389
27600,150.0
27633,150.0
27667,150.0
27700,150.0
27733,150.0
27767,150.0
27800,150.0
27833,152.2388
27867,152.2388
27900,152.2388
27933,152.2388
27967,154.0107
28000,154.0107
28033,154.0107
28067,154.0107
28100,154.0107
28133,154.0107
28167,154.0107
28200,154.0107
28233,155.33
28267,155.33
28300,155.33
28333,155.33
28367,155.33
28400,155.33
28433,154.8387
28467,154.8387
28500,154.8387
28533,154.8387
28567,154.5455
28600,154.5455
28633,154.5455
28667,154.5455
28700,154.5455
28733,154.5455
28767,154.5455
28800,154.0107
28833,154.0107
28867,156.9231
28900,156.9231
28933,157.732
28967,157.732
29000,148.4536
29033,148.4536
29067,148.4536
29100,139.1753
29133,139.1753
29167,143.1818
29200,142.3729
29233,142.3729
29267,142.3729
29300,142.3729
29333,142.3729
29367,142.3729
29400,141.57299999999995
29433,141.57299999999995
29467,131.4607
29500,131.4607
29533,128.5714
29567,128.5714
29600,128.5714
29633,128.5714
29667,128.5714
29700,128.5714
29733,116.4179
29767,128.5714
29800,128.5714
29833,114.7059
29867,112.5
29900,126.9231
29933,126.9231
29967,126.9231
30000,126.9231
30033,126.9231
30067,108.5427
30100,108.5427
30133,108.5427
30167,108.5427
30200,108.5427
30233,96.25668
30267,96.25668
30300,96.25668
30333,96.25668
30367,96.25668
30400,96.25668
30433,96.25668
30467,96.25668
30500,96.25668
30533,96.25668
30567,96.25668
30600,96.25668
30633,96.25668
30667,91.52542
30700,91.52542
30733,91.52542
30767,91.52542
30800,91.52542
30833,91.52542
30867,91.52542
30900,91.52542
30933,91.52542
30967,91.52542
31000,86.22755
31033,86.22755
31067,86.22755
31100,86.22755
31133,86.22755
31167,81.0
31200,81.0
31233,86.22755
31267,79.80296
31300,79.80296
31333,75.78947
31367,75.78947
31400,75.78947
31433,75.78947
31467,75.78947
31500,75.78947
31533,75.78947
31567,66.31579
31600,66.31579
31633,66.31579
31667,66.31579
31700,66.31579
31733,66.31579
31767,60.33519
31800,60.33519
31833,60.33519
31867,60.33519
31900,60.33519
31933,60.33519
31967,60.33519
32000,60.33519
32033,60.33519
32067,60.33519
32100,60.33519
32133,60.40268
32167,60.40268
32200,60.40268
32233,60.40268
32267,60.40268
32300,60.40268
32333,60.40268
32367,59.34066
32400,59.34066
32433,60.40268
32467,58.37838000000001
32500,58.37838000000001
32533,58.37838000000001
32567,58.37838000000001
32600,58.37838000000001
32633,58.37838000000001
32667,48.64865
32700,48.64865
32733,48.64865
32767,48.64865
32800,48.64865
32833,48.64865
32867,48.64865
32900,48.64865
32933,48.64865
32967,48.64865
33000,48.64865
33033,48.64865
33067,48.64865
33100,48.64865
33133,48.32215
33167,48.32215
33200,48.32215
33233,48.32215
33267,48.32215
33300,48.32215
33333,48.32215
33367,48.32215
33400,48.32215
33433,48.32215
33467,48.32215
33500,48.32215
33533,48.32215
33567,48.32215
33600,48.32215
33633,48.32215
33667,48.32215
33700,48.3871
33733,48.3871
33767,48.3871
33800,48.3871
33833,48.3871
33867,48.3871
33900,48.3871
33933,48.3871
33967,48.3871
34000,48.3871
34033,48.3871
34067,48.3871
34100,48.3871
34133,48.3871
34167,48.3871
34200,48.3871
34233,48.3871
34267,48.3871
34300,48.3871
34333,47.36842
34367,47.36842
34400,47.36842
34433,47.36842
34467,47.36842
34500,47.36842
34533,47.36842
34567,47.36842
34600,47.36842
34633,47.36842
34667,49.72376
34700,49.72376
34733,49.72376
34767,49.72376
34800,49.72376
34833,49.72376
34867,49.72376
34900,49.72376
34933,49.72376
34967,49.72376
35000,49.72376
35033,49.72376
35067,49.72376
35100,49.72376
35133,49.72376
35167,49.72376
35200,49.72376
35233,49.72376
35267,49.72376
35300,49.72376
35333,49.72376
35367,49.72376
35400,49.72376
35433,49.72376
35467,52.17391
35500,55.21473
35533,52.17391
35567,55.21473
35600,55.21473
35633,55.21473
35667,55.21473
35700,55.21473
35733,55.21473
35767,55.21473
35800,55.21473
35833,55.21473
35867,55.21473
35900,55.21473
35933,55.21473
35967,55.21473
36000,55.21473
36033,55.21473
36067,55.21473
36100,55.21473
36133,55.21473
36167,55.21473
36200,55.21473
36233,55.21473
36267,55.21473
36300,55.21473
36333,55.21473
36367,55.21473
36400,55.21473
36433,55.21473
36467,56.25
36500,56.25
36533,56.25
36567,56.25
36600,56.25
36633,56.25
36667,56.25
36700,56.25
36733,56.25
36767,56.25
36800,56.25
36833,56.25
36867,56.25
36900,57.69231
36933,57.69231
36967,57.69231
37000,57.69231
37033,57.69231
37067,57.69231
37100,57.69231
37133,57.69231
37167,57.69231
37200,57.69231
37233,57.69231
37267,57.69231
37300,57.69231
37333,57.69231
37367,57.69231
37400,57.69231
37433,57.69231
37467,57.69231
37500,57.69231
37533,57.69231
37567,59.34066
37600,59.34066
37633,59.34066
37667,57.69231
37700,57.69231
37733,57.69231
37767,57.69231
37800,57.69231
37833,57.69231
37867,54.54546
37900,54.54546
37933,54.54546
37967,54.54546
38000,54.54546
38033,54.54546
38067,54.54546
38100,55.55556
38133,55.55556
38167,55.55556
38200,55.55556
38233,55.55556
38267,55.55556
38300,55.55556
38333,55.55556
38367,55.55556
38400,55.55556
38433,55.55556
38467,55.55556
38500,55.55556
38533,55.55556
38567,55.55556
38600,55.55556
38633,55.55556
38667,55.55556
38700,55.55556
38733,55.55556
38767,55.55556
38800,55.55556
38833,55.55556
38867,55.55556
38900,55.55556
38933,55.6701
38967,55.6701
39000,55.6701
39033,55.6701
39067,55.6701
39100,55.6701
39133,55.6701
39167,55.6701
39200,55.6701
39233,55.6701
39267,55.6701
39300,57.32484
39333,57.32484
39367,57.32484
39400,57.32484
39433,57.32484
39467,57.32484
39500,57.32484
39533,57.32484
39567,57.32484
39600,57.32484
39633,57.32484
39667,57.32484
39700,57.32484
39733,57.32484
39767,57.32484
39800,57.32484
39833,58.69565
39867,57.32484
39900,58.37838000000001
39933,58.37838000000001
39967,58.06452
40000,58.06452
40033,58.06452
40067,58.06452
40100,58.06452
40133,58.06452
40167,58.06452
40200,58.06452
40233,58.06452
40267,58.06452
40300,58.06452
40333,58.06452
40367,58.06452
40400,58.06452
40433,58.06452
40467,58.06452
40500,58.06452
40533,57.32484
40567,57.32484
40600,57.32484
40633,57.32484
40667,57.32484
40700,57.32484
40733,57.32484
40767,57.32484
40800,58.69565
40833,57.32484
40867,58.69565
40900,58.69565
40933,58.69565
40967,58.69565
41000,58.69565
41033,58.69565
41067,58.69565
41100,58.69565
41133,58.69565
41167,58.69565
41200,58.69565
41233,58.69565
41267,58.69565
41300,58.69565
41333,58.69565
41367,58.69565
41400,58.69565
41433,58.69565
41467,58.69565
41500,57.32484
41533,57.32484
41567,57.32484
41600,57.32484
41633,57.32484
41667,57.32484
41700,57.32484
41733,58.37838000000001
41767,58.37838000000001
41800,58.37838000000001
41833,58.37838000000001
41867,58.37838000000001
41900,58.37838000000001
41933,58.69565
41967,58.69565
42000,58.69565
42033,58.69565
42067,58.69565
42100,58.69565
42133,58.69565
42167,58.69565
42200,58.69565
42233,58.69565
42267,58.69565
42300,58.69565
42333,58.69565
42367,58.69565
42400,60.67416
42433,57.32484
42467,60.67416
42500,60.67416
42533,60.67416
42567,60.67416
42600,60.67416
42633,60.67416
42667,60.67416
42700,60.67416
42733,60.67416
42767,60.67416
42800,60.67416
42833,60.67416
42867,60.67416
42900,60.67416
42933,60.67416
42967,60.67416
43000,60.67416
43033,60.67416
43067,60.67416
43100,60.67416
43133,60.67416
43167,60.67416
43200,60.67416
43233,60.67416
43267,60.67416
43300,65.69343
43333,65.69343
43367,65.69343
43400,65.69343
43433,65.69343
43467,65.69343
43500,65.69343
43533,65.45454000000001
43567,65.45454000000001
43600,65.45454000000001
43633,65.45454000000001
43667,65.45454000000001
43700,65.45454000000001
43733,65.45454000000001
43767,65.45454000000001
43800,65.45454000000001
43833,65.45454000000001
43867,65.45454000000001
43900,65.45454000000001
43933,65.45454000000001
43967,65.45454000000001
44000,65.45454000000001
44033,65.45454000000001
44067,65.45454000000001
44100,65.45454000000001
44133,65.45454000000001
44167,65.45454000000001
44200,65.45454000000001
44233,65.45454000000001
44267,65.45454000000001
44300,65.45454000000001
44333,65.45454000000001
44367,65.45454000000001
44400,65.45454000000001
44433,65.45454000000001
44467,63.31658
44500,63.31658
44533,63.31658
44567,63.31658
44600,63.31658
44633,63.31658
44667,65.06024000000001
44700,65.06024000000001
44733,65.06024000000001
44767,65.06024000000001
44800,65.06024000000001
44833,65.06024000000001
44867,65.06024000000001
44900,65.06024000000001
44933,65.06024000000001
44967,65.06024000000001
45000,65.06024000000001
45033,65.06024000000001
45067,65.06024000000001
45100,65.06024000000001
45133,65.06024000000001
45167,65.06024000000001
45200,65.06024000000001
45233,65.06024000000001
45267,65.06024000000001
45300,65.06024000000001
45333,65.06024000000001
45367,65.06024000000001
45400,65.06024000000001
45433,65.06024000000001
45467,65.06024000000001
45500,65.06024000000001
45533,65.06024000000001
45567,65.06024000000001
45600,65.06024000000001
45633,65.06024000000001
45667,65.06024000000001
45700,66.31579
45733,67.08074
45767,67.08074
45800,67.08074
45833,67.08074
45867,67.08074
45900,67.08074
45933,67.08074
45967,67.08074
46000,68.85246
46033,68.85246
46067,68.85246
46100,68.85246
46133,68.85246
46167,68.85246
46200,68.85246
46233,68.85246
46267,68.85246
46300,68.85246
46333,68.85246
46367,68.85246
46400,68.85246
46433,68.85246
46467,68.85246
46500,68.85246
46533,68.85246
46567,68.85246
46600,68.85246
46633,68.85246
46667,68.85246
46700,68.85246
46733,69.23076999999999
46767,69.23076999999999
46800,70.0
46833,69.23076999999999
46867,69.23076999999999
46900,69.23076999999999
46933,69.23076999999999
46967,69.23076999999999
47000,69.23076999999999
47033,69.23076999999999
47067,69.23076999999999
47100,69.23076999999999
47133,69.23076999999999
47167,69.23076999999999
47200,69.23076999999999
47233,69.23076999999999
47267,69.23076999999999
47300,69.23076999999999
47333,69.23076999999999
47367,69.23076999999999
47400,69.23076999999999
47433,69.23076999999999
47467,69.23076999999999
47500,69.23076999999999
47533,69.23076999999999
47567,69.23076999999999
47600,69.23076999999999
47633,69.23076999999999
47667,69.23076999999999
47700,69.23076999999999
47733,69.23076999999999
47767,69.23076999999999
47800,69.23076999999999
47833,68.10811
47867,68.10811
47900,68.10811
47933,68.10811
47967,68.10811
48000,68.10811
48033,68.10811
48067,68.10811
48100,68.10811
48133,68.10811
48167,68.10811
48200,68.10811
48233,68.10811
48267,68.10811
48300,68.10811
48333,68.10811
48367,68.10811
48400,68.10811
48433,68.10811
48467,68.10811
48500,67.08074
48533,67.08074
48567,67.08074
48600,67.08074
48633,67.08074
48667,67.08074
48700,67.08074
48733,67.02128
48767,67.02128
48800,67.02128
48833,67.02128
48867,67.02128
48900,67.02128
48933,67.02128
48967,67.02128
49000,67.02128
49033,67.02128
49067,67.02128
49100,67.02128
49133,67.02128
49167,67.02128
49200,67.02128
49233,67.02128
49267,67.02128
49300,64.67066
49333,64.67066
49367,64.67066
49400,64.67066
49433,64.67066
49467,64.67066
49500,66.31579
49533,66.31579
49567,66.31579
49600,66.31579
49633,66.31579
49667,66.31579
49700,66.31579
49733,66.31579
49767,66.31579
49800,66.31579
49833,66.31579
49867,66.31579
49900,66.31579
49933,66.31579
49967,66.31579
50000,71.52318000000002
50033,71.52318000000002
50067,75.0
50100,75.0
50133,71.52318000000002
50167,73.68421
50200,73.68421
50233,73.68421
50267,73.68421
50300,73.68421
50333,73.68421
50367,73.68421
50400,73.68421
50433,73.68421
50467,73.68421
50500,73.68421
50533,73.68421
50567,73.68421
50600,73.68421
50633,73.68421
50667,73.68421
50700,73.68421
50733,76.59574
50767,73.68421
50800,75.78947
50833,75.78947
50867,75.78947
50900,75.78947
50933,75.78947
50967,75.78947
51000,75.78947
51033,75.78947
51067,75.78947
51100,75.78947
51133,75.78947
51167,75.78947
51200,75.78947
51233,75.78947
51267,75.78947
51300,75.90361999999998
51333,75.90361999999998
51367,75.90361999999998
51400,75.90361999999998
51433,75.90361999999998
51467,75.90361999999998
51500,75.90361999999998
51533,75.90361999999998
51567,75.90361999999998
51600,75.90361999999998
51633,75.90361999999998
51667,75.90361999999998
51700,75.90361999999998
51733,75.90361999999998
51767,75.90361999999998
51800,75.90361999999998
51833,75.90361999999998
51867,75.90361999999998
51900,72.36180999999998
51933,72.36180999999998
51967,72.36180999999998
52000,72.36180999999998
52033,72.36180999999998
52067,72.36180999999998
52100,71.18644
52133,71.18644
52167,71.18644
52200,71.18644
52233,71.18644
52267,71.18644
52300,71.18644
52333,71.18644
52367,71.18644
52400,71.18644
52433,71.18644
52467,71.18644
52500,71.18644
52533,71.18644
52567,71.18644
52600,71.18644
52633,71.18644
52667,71.18644
52700,71.64179
52733,71.64179
52767,71.64179
52800,71.64179
52833,72.0
52867,72.0
52900,72.0
52933,72.0
52967,72.0
53000,72.0
53033,72.0
53067,72.0
53100,72.0
53133,72.0
53167,72.0
53200,72.0
53233,72.0
53267,72.0
53300,72.0
53333,72.0
53367,73.84615
53400,72.0
53433,73.09644
53467,73.09644
53500,73.09644
53533,73.09644
53567,73.09644
53600,73.09644
53633,73.09644
53667,73.09644
53700,75.0
53733,75.0
53767,75.0
53800,75.0
53833,75.0
53867,75.0
53900,75.0
53933,75.0
53967,75.0
54000,75.0
54033,75.0
54067,75.0
54100,75.0
54133,76.19048000000002
54167,76.19048000000002
54200,76.19048000000002
54233,76.19048000000002
54267,76.19048000000002
54300,76.19048000000002
54333,76.19048000000002
54367,76.19048000000002
54400,76.19048000000002
54433,76.19048000000002
54467,76.19048000000002
54500,76.19048000000002
54533,76.19048000000002
54567,76.19048000000002
54600,76.19048000000002
54633,76.19048000000002
54667,77.30060999999998
54700,77.30060999999998
54733,77.30060999999998
54767,77.30060999999998
54800,78.68852
54833,77.30060999999998
54867,77.83784
54900,77.30060999999998
54933,77.30060999999998
54967,76.59574
55000,76.59574
55033,76.59574
55067,76.59574
55100,76.59574
55133,76.59574
55167,76.59574
55200,76.59574
55233,76.59574
55267,76.59574
55300,76.59574
55333,76.59574
55367,76.59574
55400,76.59574
55433,76.59574
55467,76.59574
55500,76.59574
55533,76.82927
55567,76.82927
55600,76.82927
55633,76.82927
55667,77.83784
55700,77.83784
55733,77.83784
55767,77.83784
55800,77.83784
55833,77.83784
55867,77.83784
55900,77.83784
55933,75.78947
55967,75.78947
56000,75.78947
56033,75.78947
56067,75.78947
56100,75.78947
56133,75.78947
56167,75.78947
56200,75.78947
56233,75.78947
56267,75.78947
56300,75.78947
56333,74.11765
56367,74.11765
56400,74.11765
56433,74.11765
56467,74.11765
56500,74.11765
56533,74.11765
56567,74.11765
56600,74.11765
56633,74.6114
56667,74.6114
56700,74.6114
56733,74.6114
56767,74.6114
56800,74.6114
56833,74.6114
56867,74.6114
56900,74.6114
56933,74.6114
56967,74.6114
57000,75.0
57033,75.0
57067,75.0
57100,75.0
57133,75.0
57167,75.0
57200,75.0
57233,75.0
57267,75.0
57300,75.0
57333,75.0
57367,75.0
57400,75.0
57433,75.0
57467,74.22681
57500,74.22681
57533,74.48276
57567,74.48276
57600,74.48276
57633,74.48276
57667,66.66666
57700,66.66666
57733,71.28713
57767,80.19802
57800,80.19802
57833,82.28571
57867,81.81818
57900,81.81818
57933,81.81818
57967,81.81818
58000,81.81818
58033,81.81818
58067,81.81818
58100,92.04546
58133,92.04546
58167,95.74468
58200,95.74468
58233,95.74468
58267,95.74468
58300,95.74468
58333,95.74468
58367,95.74468
58400,95.74468
58433,95.74468
58467,95.74468
58500,95.74468
58533,95.74468
58567,99.0
58600,99.0
58633,99.0
58667,99.0
58700,99.0
58733,102.2727
58767,102.2727
58800,102.2727
58833,102.8571
58867,102.8571
58900,106.4516
58933,106.4516
58967,106.4516
59000,116.129
59033,116.129
59067,116.129
59100,125.8064
59133,125.8064
59167,125.8064
59200,125.8064
59233,125.8064
59267,127.9188
59300,127.9188
59333,127.9188
59367,127.9188
59400,127.9188
59433,127.9188
59467,127.9188
59500,127.9188
59533,133.7143
59567,144.0
59600,145.946
59633,145.946
59667,145.946
59700,145.946
59733,145.946
59767,145.946
59800,145.946
59833,145.946
59867,145.946
59900,145.946
59933,145.946
59967,145.946
60000,145.946
60033,145.946
60067,145.946
60100,145.946
60133,145.946
60167,145.946
60200,145.946
60233,150.0
60267,150.0
60300,150.0
60333,150.0
60367,150.0
60400,150.0
60433,150.0
60467,150.0
60500,150.0
60533,150.0
60567,150.0
60600,150.0
60633,150.0
60667,150.0
60700,150.0
60733,150.0
60767,150.0
60800,150.0
60833,150.0
60867,150.0
60900,150.0
60933,152.2388
60967,152.2388
61000,152.2388
61033,152.2388
61067,154.8387
61100,154.8387
61133,154.8387
61167,154.8387
61200,154.8387
61233,154.8387
61267,154.8387
61300,157.732
61333,157.732
61367,157.732
61400,157.732
61433,157.732
61467,160.39600000000004
61500,159.6059
61533,159.6059
61567,157.732
61600,157.732
61633,157.732
61667,157.732
61700,157.732
61733,157.732
61767,157.732
61800,157.732
61833,157.732
61867,159.375
61900,159.375
61933,159.375
61967,159.375
62000,159.375
62033,159.375
62067,159.375
62100,159.375
62133,159.375
62167,150.0
62200,150.0
62233,150.0
62267,150.7853
62300,149.2228
62333,149.2228
62367,149.2228
62400,150.0
62433,140.625
62467,140.625
62500,140.625
62533,140.625
62567,140.625
62600,131.25
62633,131.25
62667,131.25
62700,130.0
62733,130.0
62767,130.0
62800,130.0
62833,127.9188
62867,127.9188
62900,127.9188
62933,127.9188
62967,127.9188
63000,127.9188
63033,127.9188
63067,127.9188
63100,126.4865
63133,126.4865
63167,126.4865
63200,126.4865
63233,126.4865
63267,126.4865
63300,126.4865
63333,126.4865
63367,126.4865
63400,126.4865
63433,126.4865
63467,123.5294
63500,121.2435
63533,121.2435
63567,121.2435
63600,121.2435
63633,121.2435
63667,121.2435
63700,121.2435
63733,121.2435
63767,121.2435
63800,121.2435
63833,121.2435
63867,118.0328
63900,118.0328
63933,118.0328
63967,118.0328
64000,118.0328
64033,118.0328
64067,118.0328
64100,118.0328
64133,115.2709
64167,115.2709
64200,113.089
64233,113.089
64267,103.6649
64300,103.6649
64333,103.6649
64367,103.6649
64400,94.24084
64433,94.24084
64467,94.24084
64500,94.24084
64533,94.24084
64567,94.24084
64600,90.50279
64633,90.50279
64667,92.30769
64700,90.50279
64733,91.37056
64767,91.37056
64800,91.37056
64833,91.37056
64867,91.37056
64900,91.37056
64933,91.37056
64967,91.37056
65000,91.52542
65033,91.52542
65067,91.52542
65100,91.52542
65133,91.52542
65167,91.52542
65200,81.35593
65233,84.375
65267,84.375
65300,84.375
65333,84.375
65367,84.375
65400,84.375
65433,84.375
65467,84.375
65500,84.375
65533,84.375
65567,84.375
65600,84.375
65633,84.375
65667,80.89888
65700,84.375
65733,84.375
65767,84.375
65800,84.375
65833,84.375
65867,84.375
65900,93.75
65933,93.75
65967,93.75
66000,93.75
66033,93.75
66067,94.24084
66100,94.24084
66133,88.52459
66167,88.52459
66200,88.52459
66233,88.52459
66267,88.52459
66300,89.10891
66333,89.10891
66367,89.10891
66400,94.18604
66433,94.18604
66467,94.18604
66500,94.73684
66533,94.73684
66567,94.73684
66600,84.21053
66633,84.21053
66667,84.21053
66700,84.21053
66733,84.21053
66767,84.21053
66800,84.21053
66833,84.21053
66867,84.21053
66900,84.21053
66933,84.21053
66967,83.23699
67000,83.23699
67033,72.83237
67067,72.83237
67100,72.83237
67133,72.83237
67167,72.83237
67200,72.83237
67233,72.83237
67267,72.83237
67300,72.83237
67333,71.59091
67367,71.59091
67400,71.59091
67433,71.59091
67467,71.59091
67500,71.59091
67533,71.59091
67567,71.59091
67600,72.0
67633,72.0
67667,72.0
67700,72.0
67733,72.0
67767,72.0
67800,72.0
67833,72.0
67867,72.0
67900,72.0
67933,72.0
67967,72.0
68000,72.0
68033,72.0
68067,72.0
68100,72.0
68133,72.0
68167,72.0
68200,72.0
68233,70.93596
68267,70.58823000000002
68300,69.23076999999999
68333,59.34066
68367,59.34066
68400,59.34066
68433,59.34066
68467,59.34066
68500,49.45055
68533,49.45055
68567,49.45055
68600,49.45055
68633,49.45055
68667,49.45055
68700,49.45055
68733,49.45055
68767,49.45055
68800,49.45055
68833,49.45055
68867,49.45055
68900,49.45055
68933,49.45055
68967,49.45055
69000,59.34066
69033,55.90062
69067,55.90062
69100,55.90062
69133,55.90062
69167,55.90062
69200,55.90062
69233,56.84211
69267,56.84211
69300,56.84211
69333,56.84211
69367,56.84211
69400,56.84211
69433,56.84211
69467,56.84211
69500,56.84211
69533,56.84211
69567,56.84211
69600,56.84211
69633,56.84211
69667,56.84211
69700,57.14286
69733,59.21053000000001
69767,59.21053000000001
69800,64.67066
69833,64.67066
69867,64.67066
69900,64.67066
69933,65.06024000000001
69967,65.06024000000001
70000,65.06024000000001
70033,65.06024000000001
70067,65.06024000000001
70100,70.78650999999998
70133,70.78650999999998
70167,70.78650999999998
70200,70.78650999999998
70233,70.78650999999998
70267,70.78650999999998
70300,70.78650999999998
70333,70.78650999999998
70367,70.78650999999998
70400,70.78650999999998
70433,70.78650999999998
70467,70.78650999999998
70500,70.78650999999998
70533,75.39267
70567,75.39267
70600,75.39267
70633,75.39267
70667,75.39267
70700,75.39267
70733,75.78947
70767,85.26316
70800,85.26316
70833,85.26316
70867,85.26316
70900,85.26316
70933,85.26316
70967,94.73684
71000,97.05882
71033,104.7619
71067,104.2105
71100,104.2105
71133,104.2105
71167,104.2105
71200,104.2105
71233,104.2105
71267,113.6842
71300,113.6842
71333,113.6842
71367,116.4179
71400,123.1579
71433,124.1379
71467,124.1379
71500,122.5131
71533,122.5131
71567,122.5131
71600,122.5131
71633,122.5131
71667,122.5131
71700,122.5131
71733,122.5131
71767,122.5131
71800,122.5131
71833,122.5131
71867,133.0049
71900,131.25
71933,131.25
71967,131.25
72000,131.25
72033,131.25
72067,131.25
72100,131.25
72133,131.25
72167,133.6634
72200,133.6634
72233,133.6634
72267,132.6316
72300,132.6316
72333,132.6316
72367,132.6316
72400,132.6316
72433,132.6316
72467,132.6316
72500,132.6316
72533,134.3284
72567,134.3284
72600,134.3284
72633,134.3284
72667,133.3333
72700,133.3333
72733,133.3333
72767,133.3333
72800,133.3333
72833,133.3333
72867,133.3333
72900,133.3333
72933,133.3333
72967,133.3333
73000,133.0049
73033,133.0049
73067,131.9372
73100,131.9372
73133,131.9372
73167,131.9372
73200,131.9372
73233,131.9372
73267,131.9372
73300,131.9372
73333,131.9372
73367,131.9372
73400,133.0049
73433,133.0049
73467,134.0426
73500,134.0426
73533,134.0426
73567,134.0426
73600,134.0426
73633,134.0426
73667,134.0426
73700,134.0426
73733,134.0426
73767,134.0426
73800,135.0
73833,135.0
73867,135.0
73900,135.0
73933,135.0
73967,132.6316
74000,132.6316
74033,132.6316
74067,133.3333
74100,133.3333
74133,135.6784
74167,135.6784
74200,135.6784
74233,135.6784
74267,135.6784
74300,135.6784
74333,145.6647
74367,145.6647
74400,145.6647
74433,145.6647
74467,145.6647
74500,145.6647
74533,145.946
74567,145.946
74600,145.946
74633,145.946
74667,145.946
74700,145.946
74733,145.946
74767,145.946
74800,145.946
74833,145.946
74867,145.946
74900,145.946
74933,146.9388
74967,146.9388
75000,147.6923
75033,138.4615
75067,138.4615
75100,138.4615
75133,138.4615
75167,129.2308
75200,128.5714
75233,128.5714
75267,128.5714
75300,128.5714
75333,128.5714
75367,128.5714
75400,128.5714
75433,128.5714
75467,128.5714
75500,128.5714
75533,128.5714
75567,128.5714
75600,128.5714
75633,117.1598
75667,111.9171
75700,111.9171
75733,111.9171
75767,111.9171
75800,111.9171
75833,111.9171
75867,111.9171
75900,111.9171
75933,111.9171
75967,111.9171
76000,111.9171
76033,111.9171
76067,110.0
76100,110.0
76133,110.0
76167,110.0
76200,110.0
76233,110.0
76267,100.0
76300,100.0
76333,100.0
76367,98.50746
76400,98.50746
76433,98.50746
76467,98.50746
76500,95.74468
76533,95.74468
76567,95.74468
76600,95.74468
76633,95.74468
76667,95.74468
76700,95.74468
76733,95.74468
76767,95.74468
76800,95.74468
76833,95.74468
76867,95.74468
76900,86.17021
76933,82.28571
76967,82.28571
77000,82.28571
77033,82.28571
77067,82.28571
77100,82.28571
77133,82.28571
77167,82.28571
77200,82.28571
77233,82.28571
77267,82.28571
77300,82.28571
77333,80.19802
77367,76.19048000000002
77400,76.19048000000002
77433,66.66666
77467,66.66666
77500,66.66666
77533,66.66666
77567,66.66666
77600,66.66666
77633,66.66666
77667,66.66666
77700,66.66666
77733,70.93596
77767,66.66666
77800,69.23076999999999
77833,72.83237
77867,72.83237
77900,73.25581
77933,73.25581
77967,73.25581
78000,73.25581
78033,73.25581
78067,73.25581
78100,73.25581
78133,73.25581
78167,73.25581
78200,73.25581
78233,73.25581
78267,73.25581
78300,73.25581
78333,73.25581
78367,73.25581
78400,73.25581
78433,73.25581
78467,73.25581
78500,73.25581
78533,74.22681
78567,73.25581
78600,73.46939
78633,73.46939
78667,73.46939
78700,73.46939
78733,73.46939
78767,73.46939
78800,73.46939
78833,73.46939
78867,73.46939
78900,75.0
78933,75.90361999999998
78967,75.90361999999998
79000,75.90361999999998
79033,75.90361999999998
79067,75.90361999999998
79100,75.90361999999998
79133,75.90361999999998
79167,75.90361999999998
79200,75.90361999999998
79233,75.90361999999998
79267,75.90361999999998
79300,75.90361999999998
79333,75.78947
79367,75.78947
79400,75.78947
79433,75.78947
79467,75.78947
79500,75.78947
79533,75.78947
79567,75.78947
79600,75.78947
79633,75.78947
79667,75.78947
79700,75.78947
79733,75.78947
79767,75.78947
79800,75.78947
79833,80.76923000000002
79867,80.76923000000002
79900,80.76923000000002
79933,80.76923000000002
79967,80.76923000000002
80000,80.76923000000002
80033,80.76923000000002
80067,80.76923000000002
80100,80.76923000000002
80133,80.76923000000002
80167,80.76923000000002
80200,80.76923000000002
80233,78.68852
80267,78.68852
80300,78.68852
80333,78.68852
80367,78.68852
80400,78.68852
80433,78.68852
80467,78.68852
80500,78.68852
80533,78.68852
80567,78.68852
80600,78.68852
80633,78.68852
80667,78.68852
80700,78.68852
80733,78.68852
80767,78.68852
80800,78.68852
80833,78.68852
80867,78.68852
80900,78.68852
80933,78.68852
80967,78.68852
81000,78.68852
81033,78.68852
81067,78.68852
81100,78.68852
81133,78.68852
81167,78.68852
81200,78.68852
81233,78.68852
81267,78.68852
81300,78.68852
81333,78.68852
81367,79.12088
81400,79.12088
81433,79.12088
81467,79.12088
81500,79.12088
81533,79.12088
81567,79.12088
81600,79.12088
81633,79.12088
81667,79.12088
81700,79.12088
81733,79.55801
81767,79.24529
81800,79.24529
81833,79.24529
81867,79.24529
81900,79.24529
81933,79.24529
81967,79.24529
82000,79.24529
82033,79.24529
82067,79.24529
82100,75.0
82133,75.0
82167,75.0
82200,75.0
82233,75.0
82267,75.0
82300,75.0
82333,75.0
82367,75.0
82400,75.0
82433,75.0
82467,75.0
82500,73.68421
82533,73.68421
82567,73.68421
82600,73.68421
82633,73.68421
82667,73.68421
82700,73.68421
82733,73.68421
82767,75.0
82800,75.0
82833,75.0
82867,75.0
82900,75.0
82933,74.6114
82967,74.6114
83000,74.6114
83033,74.6114
83067,74.6114
83100,74.6114
83133,74.6114
83167,74.6114
83200,73.68421
83233,73.68421
83267,73.68421
83300,73.68421
83333,73.68421
83367,73.68421
83400,73.68421
83433,73.68421
83467,75.39267
83500,75.39267
83533,75.39267
83567,75.39267
83600,75.39267
83633,75.39267
83667,75.39267
83700,75.39267
83733,75.39267
83767,75.39267
83800,75.39267
83833,75.39267
83867,75.39267
83900,75.39267
83933,73.68421
83967,73.68421
84000,73.68421
84033,73.68421
84067,73.68421
84100,73.68421
84133,73.68421
84167,75.0
84200,75.0
84233,75.0
84267,75.0
84300,75.0
84333,75.0
84367,75.0
84400,75.0
84433,75.0
84467,75.0
84500,75.0
84533,75.0
84567,75.0
84600,74.55621
84633,74.55621
84667,74.55621
84700,74.55621
84733,74.55621
84767,74.55621
84800,77.83784
84833,77.83784
84867,77.83784
84900,77.83784
84933,77.83784
84967,77.83784
85000,77.83784
85033,77.83784
85067,77.83784
85100,77.83784
85133,77.83784
85167,77.83784
85200,77.83784
85233,77.83784
85267,77.83784
85300,79.80296
85333,79.80296
85367,79.55801
85400,79.55801
85433,79.55801
85467,79.55801
85500,79.55801
85533,79.55801
85567,79.55801
85600,79.55801
85633,79.55801
85667,79.55801
85700,79.55801
85733,79.55801
85767,79.55801
85800,79.55801
85833,79.55801
85867,79.55801
85900,79.55801
85933,79.55801
85967,79.55801
86000,79.55801
86033,79.55801
86067,79.55801
86100,82.89474
86133,82.89474
86167,82.89474
86200,82.89474
86233,80.0
86267,80.0
86300,80.0
86333,80.0
86367,82.89474
86400,77.83784
86433,77.83784
86467,77.83784
86500,77.83784
86533,77.83784
86567,77.83784
86600,77.83784
86633,77.83784
86667,77.83784
86700,77.83784
86733,77.83784
86767,77.83784
86800,77.83784
86833,77.83784
86867,77.83784
86900,77.83784
86933,77.83784
86967,77.83784
87000,77.83784
87033,77.83784
87067,77.30060999999998
87100,77.30060999999998
87133,77.83784
87167,77.30060999999998
87200,77.00535
87233,77.30060999999998
87267,77.30060999999998
87300,75.78947
87333,75.78947
87367,75.78947
87400,75.78947
87433,75.78947
87467,75.78947
87500,75.78947
87533,75.78947
87567,75.78947
87600,75.78947
87633,75.78947
87667,75.78947
87700,75.78947
87733,75.78947
87767,75.78947
87800,80.25478000000003
87833,80.25478000000003
87867,80.25478000000003
87900,80.25478000000003
87933,80.25478000000003
87967,80.25478000000003
88000,80.89888
88033,80.89888
88067,80.89888
88100,80.89888
88133,80.89888
88167,80.89888
88200,80.89888
88233,80.89888
88267,80.89888
88300,80.89888
88333,80.89888
88367,80.89888
88400,80.89888
88433,81.35593
88467,81.35593
88500,81.35593
88533,81.35593
88567,81.35593
88600,81.35593
88633,81.35593
88667,81.35593
88700,81.35593
88733,81.35593
88767,81.35593
88800,81.40704000000002
88833,81.40704000000002
88867,81.40704000000002
88900,80.89888
88933,80.89888
88967,80.89888
89000,80.89888
89033,80.89888
89067,80.89888
89100,80.89888
89133,80.89888
89167,80.89888
89200,80.89888
89233,80.89888
89267,80.89888
89300,80.89888
89333,82.23351
89367,82.23351
89400,82.23351
89433,82.23351
89467,82.23351
89500,82.23351
89533,82.23351
89567,82.23351
89600,81.81818
89633,81.81818
89667,81.81818
89700,81.81818
89733,81.81818
89767,81.81818
89800,81.81818
89833,81.81818
89867,81.81818
89900,81.81818
89933,81.81818
89967,81.81818
90000,81.81818
90033,82.23351
90067,82.23351
90100,82.23351
90133,82.23351
90167,82.23351
90200,82.23351
90233,82.23351
90267,82.23351
90300,80.89888
90333,80.89888
90367,80.89888
90400,80.89888
90433,80.89888
90467,80.89888
90500,80.89888
90533,80.89888
90567,80.89888
90600,80.89888
90633,80.89888
90667,80.89888
90700,80.89888
90733,80.89888
90767,81.0
90800,81.0
90833,81.0
90867,81.0
90900,81.0
90933,79.12088
90967,79.12088
91000,79.12088
91033,79.12088
91067,79.12088
91100,79.12088
91133,79.12088
91167,79.12088
91200,78.68852
91233,78.68852
91267,78.68852
91300,78.68852
91333,78.68852
91367,78.68852
91400,78.68852
91433,79.80296
91467,79.80296
91500,78.26087
91533,78.26087
91567,78.26087
91600,78.26087
91633,78.26087
91667,78.26087
91700,78.26087
91733,78.26087
91767,78.26087
91800,78.26087
91833,78.26087
91867,78.26087
91900,78.26087
91933,78.26087
91967,78.26087
92000,78.26087
92033,78.26087
92067,78.26087
92100,79.41176999999998
92133,84.21053
92167,84.21053
92200,84.21053
92233,84.21053
92267,84.21053
92300,84.21053
92333,84.21053
92367,84.21053
92400,84.21053
92433,84.21053
92467,84.21053
92500,84.21053
92533,84.21053
92567,84.21053
92600,84.21053
92633,84.21053
92667,84.21053
92700,84.21053
92733,84.21053
92767,84.81676
92800,84.81676
92833,84.81676
92867,84.81676
92900,84.81676
92933,84.81676
92967,84.81676
93000,84.81676
93033,84.81676
93067,84.81676
93100,84.81676
93133,84.81676
93167,84.81676
93200,84.81676
93233,87.80488000000004
93267,87.80488000000004
93300,87.80488000000004
93333,87.80488000000004
93367,87.80488000000004
93400,87.80488000000004
93433,87.80488000000004
93467,89.01099
93500,89.01099
93533,89.01099
93567,89.01099
93600,89.01099
93633,89.01099
93667,89.01099
93700,89.01099
93733,89.01099
93767,89.01099
93800,89.01099
93833,89.01099
93867,89.01099
93900,89.01099
93933,89.01099
93967,89.01099
94000,89.55224
94033,89.55224
94067,89.55224
94100,89.55224
94133,90.0
94167,90.0
94200,90.0
94233,90.0
94267,90.0
94300,90.0
94333,90.0
94367,90.0
94400,90.0
94433,90.0
94467,90.0
94500,90.0
94533,90.0
94567,90.0
94600,90.0
94633,90.0
94667,90.0
94700,90.0
94733,89.10891
94767,89.10891
94800,89.10891
94833,89.50276
94867,89.50276
94900,89.50276
94933,89.50276
94967,89.50276
95000,89.50276
95033,89.50276
95067,89.50276
95100,89.50276
95133,89.50276
95167,89.50276
95200,89.50276
95233,89.50276
95267,89.50276
95300,89.50276
95333,89.50276
95367,90.0
95400,90.0
95433,90.0
95467,90.0
95500,90.0
95533,89.50276
95567,89.50276
95600,89.50276
95633,89.50276
95667,89.50276
95700,89.50276
95733,89.50276
95767,89.50276
95800,89.50276
95833,89.50276
95867,89.50276
95900,89.50276
95933,89.50276
95967,89.50276
96000,89.50276
96033,89.50276
96067,89.50276
96100,89.50276
96133,90.0
96167,90.50279
96200,90.50279
96233,90.50279
96267,90.50279
96300,90.50279
96333,90.50279
96367,90.50279
96400,90.50279
96433,90.50279
96467,90.50279
96500,90.50279
96533,90.50279
96567,90.50279
96600,90.50279
96633,90.90909
96667,90.90909
96700,90.90909
96733,90.90909
96767,90.90909
96800,90.90909
96833,90.90909
96867,92.04546
96900,92.04546
96933,92.04546
96967,92.04546
97000,92.04546
97033,92.04546
97067,92.04546
97100,92.04546
97133,92.04546
97167,92.04546
97200,92.04546
97233,92.04546
97267,92.04546
97300,92.04546
97333,92.04546
97367,92.04546
97400,92.04546
97433,90.0
97467,90.0
97500,90.0
97533,90.0
97567,90.0
97600,90.0
97633,90.0
97667,90.0
97700,90.0
97733,90.0
97767,90.0
97800,90.0
97833,90.0
97867,90.0
97900,90.0
97933,90.0
97967,90.0
98000,90.0
98033,90.0
98067,90.0
98100,90.0
98133,90.0
98167,89.10891
98200,89.10891
98233,89.10891
98267,89.01099
98300,89.01099
98333,89.01099
98367,89.01099
98400,89.01099
98433,89.01099
98467,89.01099
98500,89.01099
98533,89.01099
98567,89.01099
98600,89.01099
98633,89.01099
98667,89.01099
98700,89.01099
98733,89.01099
98767,89.01099
98800,89.01099
98833,89.01099
98867,88.66995
98900,88.66995
98933,88.52459
98967,88.52459
99000,88.52459
99033,88.52459
99067,88.52459
99100,88.52459
99133,88.52459
99167,88.52459
99200,88.52459
99233,88.52459
99267,88.52459
99300,88.52459
99333,88.52459
99367,88.52459
99400,88.52459
99433,88.52459
99467,88.52459
99500,88.52459
99533,88.52459
99567,88.52459
99600,86.63101999999998
99633,86.63101999999998
99667,86.63101999999998
99700,86.63101999999998
99733,86.63101999999998
99767,86.63101999999998
99800,86.63101999999998
99833,86.63101999999998
99867,86.63101999999998
99900,86.63101999999998
99933,86.63101999999998
99967,86.63101999999998
100000,86.63101999999998
100033,86.63101999999998
100067,86.63101999999998
100100,86.63101999999998
100133,86.63101999999998
100167,86.63101999999998
100200,85.71429
100233,85.71429
100267,85.71429
100300,85.71429
100333,85.71429
100367,85.71429
100400,85.71429
100433,83.93782
100467,83.93782
100500,83.93782
100533,83.93782
100567,83.93782
100600,83.93782
100633,83.93782
100667,83.93782
100700,83.93782
100733,83.93782
100767,83.93782
100800,83.93782
100833,84.21053
100867,84.21053
100900,84.21053
100933,84.21053
100967,84.21053
101000,84.21053
101033,84.21053
101067,84.21053
101100,84.21053
101133,84.375
101167,84.375
101200,84.375
101233,84.375
101267,84.375
101300,84.375
101333,84.375
101367,84.375
101400,84.375
101433,84.375
101467,84.375
101500,84.375
101533,84.375
101567,83.23699
101600,83.23699
101633,83.23699
101667,83.23699
101700,83.23699
101733,82.75862
101767,82.75862
101800,82.75862
101833,82.75862
101867,82.75862
101900,82.75862
101933,82.23351
101967,82.23351
102000,82.23351
102033,82.23351
102067,82.23351
102100,82.23351
102133,82.23351
102167,82.23351
102200,80.89888
102233,80.89888
102267,80.89888
102300,80.89888
102333,80.89888
102367,80.89888
102400,80.89888
102433,80.89888
102467,80.89888
102500,80.89888
102533,80.89888
102567,80.89888
102600,80.89888
102633,80.89888
102667,81.0
102700,81.40704000000002
102733,81.40704000000002
102767,81.40704000000002
102800,80.0
102833,80.0
102867,80.0
102900,80.0
102933,80.0
102967,80.0
103000,80.0
103033,80.0
103067,80.0
103100,80.0
103133,80.0
103167,80.0
103200,80.0
103233,80.0
103267,81.40704000000002
103300,81.40704000000002
103333,81.40704000000002
103367,81.40704000000002
103400,81.40704000000002
103433,80.0
103467,82.28571
103500,82.28571
103533,82.28571
103567,82.28571
103600,82.28571
103633,82.28571
103667,82.28571
103700,82.28571
103733,82.28571
103767,82.28571
103800,82.28571
103833,82.28571
103867,82.28571
103900,82.28571
103933,83.23699
103967,83.23699
104000,83.23699
104033,83.23699
104067,83.23699
104100,83.23699
104133,83.23699
104167,80.19802
104200,80.19802
104233,80.19802
104267,80.0
104300,79.55801
104333,79.55801
104367,79.55801
104400,79.55801
104433,79.55801
104467,79.55801
104500,79.12088
104533,79.12088
104567,79.12088
104600,79.12088
104633,79.12088
104667,79.12088
104700,69.23076999999999
104733,69.23076999999999
104767,69.23076999999999
104800,69.23076999999999
104833,69.23076999999999
104867,69.23076999999999
104900,69.23076999999999
104933,69.23076999999999
104967,69.23076999999999
105000,67.08074
105033,67.08074
105067,67.08074
105100,67.08074
105133,67.08074
105167,67.08074
105200,67.08074
105233,67.08074
105267,67.08074
105300,67.08074
105333,64.94846
105367,64.94846
105400,64.94846
105433,64.94846
105467,64.94846
105500,64.94846
105533,64.61539
105567,64.61539
105600,64.61539
105633,64.61539
105667,64.61539
105700,62.42775
105733,62.42775
105767,62.42775
105800,62.42775
105833,62.42775
105867,62.42775
105900,62.42775
105933,62.42775
105967,62.42775
106000,62.42775
106033,62.06896999999999
106067,62.06896999999999
106100,62.06896999999999
106133,62.06896999999999
106167,62.06896999999999
106200,62.06896999999999
106233,62.06896999999999
106267,62.06896999999999
106300,62.06896999999999
106333,62.06896999999999
106367,62.06896999999999
106400,62.06896999999999
106433,61.22449
106467,61.22449
106500,61.22449
106533,61.22449
106567,60.40268
106600,60.40268
106633,60.40268
106667,60.40268
106700,60.40268
106733,60.40268
106767,60.40268
106800,60.40268
106833,60.40268
106867,60.40268
106900,60.40268
106933,55.95855
106967,60.40268
107000,60.40268
107033,55.10204
107067,55.10204
107100,55.10204
107133,55.10204
107167,55.10204
107200,55.10204
107233,55.10204
107267,55.10204
107300,55.10204
107333,50.84746
107367,50.84746
107400,50.84746
107433,50.84746
107467,50.84746
107500,50.84746
107533,50.84746
107567,50.84746
107600,50.84746
107633,50.84746
107667,50.84746
107700,50.84746
107733,50.84746
107767,50.84746
107800,50.84746
107833,50.84746
107867,50.84746
107900,50.84746
107933,50.27933
107967,49.45055
108000,49.45055
108033,50.0
108067,50.0
108100,50.0
108133,50.0
108167,50.0
108200,50.0
108233,50.0
108267,50.0
108300,50.0
108333,50.0
108367,50.0
108400,50.0
108433,55.38462
108467,55.38462
108500,64.61539
108533,64.61539
108567,64.61539
108600,64.61539
108633,64.61539
108667,64.61539
108700,64.61539
108733,73.84615
108767,74.11765
108800,74.11765
108833,74.11765
108867,73.68421
108900,73.68421
108933,73.68421
108967,73.68421
109000,73.68421
109033,73.68421
109067,73.68421
109100,75.39267
109133,75.39267
109167,75.39267
109200,75.39267
109233,75.39267
109267,75.39267
109300,75.39267
109333,75.39267
109367,75.39267
109400,75.39267
109433,84.81676
109467,84.81676
109500,84.81676
109533,84.81676
109567,80.89888
109600,80.89888
109633,80.89888
109667,80.89888
109700,80.89888
109733,80.89888
109767,80.89888
109800,80.89888
109833,80.89888
109867,80.89888
109900,80.89888
109933,80.89888
109967,80.44693000000002
110000,84.0
110033,84.0
110067,84.0
110100,84.0
110133,84.0
110167,84.0
110200,84.0
110233,84.0
110267,84.0
110300,84.0
110333,72.0
110367,71.52318000000002
110400,71.52318000000002
110433,71.52318000000002
110467,71.52318000000002
110500,71.52318000000002
110533,71.52318000000002
110567,72.0
110600,72.0
110633,72.0
110667,72.0
110700,72.0
110733,60.0
110767,63.63636
110800,54.54546
110833,54.82233000000001
110867,55.10204
110900,55.10204
110933,55.10204
110967,64.61539
111000,74.55621
111033,85.2071
111067,85.2071
111100,74.55621
111133,75.0
111167,75.0
111200,81.81818
111233,92.57143
111267,93.10345
111300,93.10345
111333,82.75862
111367,93.10345
111400,93.10345
111433,93.10345
111467,93.10345
111500,93.10345
111533,93.10345
111567,93.10345
111600,86.22755
111633,75.4491
111667,75.4491
111700,75.4491
111733,75.4491
111767,75.4491
111800,75.4491
111833,74.22681
111867,74.22681
111900,64.94846
111933,64.94846
111967,64.94846
112000,55.6701
112033,55.6701
112067,55.6701
112100,55.6701
112133,55.6701
112167,55.6701
112200,51.13636
112233,51.13636
112267,51.13636
112300,51.13636
112333,51.13636
112367,51.13636
112400,51.13636
112433,51.13636
112467,51.13636
112500,51.13636
112533,54.82233000000001
112567,54.82233000000001
112600,54.82233000000001
112633,54.82233000000001
112667,54.82233000000001
112700,54.82233000000001
112733,54.82233000000001
112767,54.82233000000001
112800,55.55556
112833,55.55556
112867,55.55556
112900,55.55556
112933,55.55556
112967,55.55556
113000,55.55556
113033,55.55556
113067,55.55556
113100,55.55556
113133,55.55556
113167,55.55556
113200,55.55556
113233,55.55556
113267,58.69565
113300,58.69565
113333,58.69565
113367,58.69565
113400,58.69565
113433,58.69565
113467,58.69565
113500,58.69565
113533,58.69565
113567,58.69565
113600,59.01639
113633,59.01639
113667,59.01639
113700,59.01639
113733,59.01639
113767,59.01639
113800,59.01639
113833,59.01639
113867,59.01639
113900,59.01639
113933,59.01639
113967,60.0
114000,60.0
114033,62.06896999999999
114067,62.06896999999999
114100,62.06896999999999
114133,62.06896999999999
114167,62.06896999999999
114200,62.06896999999999
114233,62.06896999999999
114267,62.06896999999999
114300,62.06896999999999
114333,62.06896999999999
114367,62.06896999999999
114400,62.06896999999999
114433,62.06896999999999
114467,62.06896999999999
114500,62.06896999999999
114533,62.06896999999999
114567,62.06896999999999
114600,62.42775
114633,62.42775
114667,65.28497
114700,65.28497
114733,65.625
114767,65.625
114800,65.625
114833,65.625
114867,65.625
114900,65.625
114933,66.31579
114967,66.31579
115000,66.31579
115033,66.31579
115067,66.66666
115100,66.66666
115133,70.58823000000002
115167,70.39106
115200,70.39106
115233,70.39106
115267,70.39106
115300,70.39106
115333,70.39106
115367,70.39106
115400,70.39106
115433,70.39106
115467,70.39106
115500,70.39106
115533,70.39106
115567,70.39106
115600,70.39106
115633,70.39106
115667,70.0
115700,73.09644
115733,73.09644
115767,73.09644
115800,73.09644
115833,73.09644
115867,73.09644
115900,73.09644
115933,73.09644
115967,88.11189
116000,88.11189
116033,88.11189
116067,88.11189
116100,88.11189
116133,88.11189
116167,88.11189
116200,88.11189
116233,88.11189
116267,88.11189
116300,88.11189
116333,88.88889
116367,88.88889
116400,88.88889
116433,88.88889
116467,88.88889
116500,88.88889
116533,88.88889
116567,88.88889
116600,88.88889
116633,88.88889
116667,88.88889
116700,88.88889
116733,88.88889
116767,88.88889
116800,88.88889
116833,91.52542
116867,91.52542
116900,91.52542
116933,91.52542
116967,91.52542
117000,91.52542
117033,91.52542
117067,91.52542
117100,91.52542
117133,91.52542
117167,91.52542
117200,91.52542
117233,91.52542
117267,91.52542
117300,91.52542
117333,91.52542
117367,92.78351
117400,92.78351
117433,92.78351
117467,92.78351
117500,92.78351
117533,92.78351
117567,92.78351
117600,92.78351
117633,92.78351
117667,92.78351
117700,92.78351
117733,98.18182
117767,98.18182
117800,98.18182
117833,98.18182
117867,98.18182
117900,98.18182
117933,98.18182
117967,98.36066
118000,98.36066
118033,98.36066
118067,98.36066
118100,98.36066
118133,98.36066
118167,98.36066
118200,98.36066
118233,98.36066
118267,98.36066
118300,98.36066
118333,98.36066
118367,98.36066
118400,98.36066
118433,98.36066
118467,98.36066
118500,98.36066
118533,98.36066
118567,98.36066
118600,98.36066
118633,98.36066
118667,98.36066
118700,98.36066
118733,98.36066
118767,98.36066
118800,98.36066
118833,98.36066
118867,98.36066
118900,98.36066
118933,98.36066
118967,98.36066
119000,98.36066
119033,98.36066
119067,98.36066
119100,98.36066
119133,98.36066
119167,98.36066
119200,98.36066
119233,99.49749
119267,99.49749
119300,99.49749
119333,99.49749
119367,99.49749
119400,99.49749
119433,101.1236
119467,101.1236
119500,101.1236
119533,101.1236
119567,101.1236
119600,101.1236
119633,101.1236
119667,101.1236
119700,101.1236
119733,101.1236
119767,101.1236
119800,101.1236
119833,101.1236
119867,101.1236
119900,101.1236
119933,101.1236
119967,101.1236
120000,101.1236
120033,101.1236
120067,101.1236
120100,100.0
120133,101.1236
120167,101.1236
120200,101.1236
120233,101.1236
120267,101.1236
120300,101.1236
120333,101.1236
120367,101.1236
120400,101.1236
120433,102.0619
120467,102.0619
120500,102.0619
120533,102.0619
120567,102.0619
120600,102.0619
120633,102.0619
120667,102.0619
120700,92.78351
120733,92.78351
120767,92.78351
120800,92.57143
120833,93.10345
120867,93.10345
120900,93.10345
120933,93.10345
120967,93.10345
121000,93.10345
121033,93.26425
121067,93.26425
121100,93.26425
121133,93.26425
121167,93.26425
121200,93.26425
121233,93.26425
121267,93.26425
121300,93.26425
121333,93.26425
121367,93.26425
121400,93.26425
121433,91.01124
121467,91.01124
121500,91.01124
121533,91.01124
121567,91.01124
121600,91.01124
121633,91.01124
121667,91.01124
121700,91.01124
121733,91.01124
121767,91.01124
121800,89.55224
121833,89.55224
121867,89.55224
121900,89.55224
121933,88.52459
121967,88.52459
122000,88.52459
122033,88.52459
122067,88.52459
122100,88.52459
122133,88.52459
122167,88.52459
122200,88.52459
122233,88.52459
122267,88.52459
122300,90.90909
122333,90.90909
122367,90.90909
122400,90.90909
122433,90.90909
122467,90.90909
122500,90.90909
122533,91.01124
122567,91.01124
122600,91.01124
122633,91.01124
122667,91.01124
122700,91.01124
122733,91.01124
122767,91.01124
122800,91.01124
122833,80.89888
122867,80.89888
122900,80.89888
122933,80.89888
122967,80.89888
123000,80.89888
123033,81.0
123067,81.0
123100,81.0
123133,81.0
123167,81.0
123200,84.70588000000002
123233,84.70588000000002
123267,84.70588000000002
123300,84.70588000000002
123333,84.70588000000002
123367,84.70588000000002
123400,84.70588000000002
123433,84.70588000000002
123467,84.70588000000002
123500,84.70588000000002
123533,84.70588000000002
123567,84.70588000000002
123600,84.70588000000002
123633,84.70588000000002
123667,84.70588000000002
123700,84.70588000000002
123733,84.70588000000002
123767,84.70588000000002
123800,84.70588000000002
123833,83.50516
123867,83.50516
123900,83.50516
123933,83.50516
123967,83.50516
124000,83.50516
124033,83.50516
124067,83.50516
124100,83.50516
124133,83.50516
124167,83.50516
124200,82.75862
124233,82.75862
124267,82.75862
124300,82.75862
124333,82.75862
124367,82.75862
124400,82.75862
124433,82.75862
124467,82.75862
124500,82.75862
124533,82.75862
124567,83.23699
124600,83.23699
124633,83.23699
124667,83.23699
124700,83.23699
124733,83.23699
124767,83.23699
124800,83.23699
124833,83.23699
124867,83.23699
124900,76.59574
124933,76.59574
124967,76.59574
125000,76.59574
125033,76.59574
125067,76.59574
125100,76.59574
125133,76.59574
125167,76.59574
125200,76.59574
125233,76.59574
125267,76.59574
125300,76.59574
125333,76.59574
125367,76.59574
125400,76.59574
125433,76.59574
125467,75.90361999999998
125500,75.90361999999998
125533,75.90361999999998
125567,75.90361999999998
125600,75.90361999999998
125633,75.90361999999998
125667,75.90361999999998
125700,75.78947
125733,75.78947
125767,75.78947
125800,75.78947
125833,75.78947
125867,75.78947
125900,75.78947
125933,75.78947
125967,75.78947
126000,75.78947
126033,75.78947
126067,75.78947
126100,75.78947
126133,75.78947
126167,75.78947
126200,78.26087
126233,78.26087
126267,78.26087
126300,78.26087
126333,78.26087
126367,78.26087
126400,78.26087
126433,78.26087
126467,78.26087
126500,78.26087
126533,78.26087
126567,78.26087
126600,78.26087
126633,76.19048000000002
126667,76.19048000000002
126700,76.19048000000002
126733,76.19048000000002
126767,76.19048000000002
126800,76.19048000000002
126833,76.19048000000002
126867,76.19048000000002
126900,76.19048000000002
126933,76.19048000000002
126967,76.19048000000002
127000,76.19048000000002
127033,76.19048000000002
127067,76.19048000000002
127100,76.19048000000002
127133,76.19048000000002
127167,75.0
127200,75.0
127233,75.0
127267,75.0
127300,75.0
127333,75.0
127367,75.0
127400,75.0
127433,75.0
127467,75.0
127500,75.0
127533,75.0
127567,73.46939
127600,73.46939
127633,73.46939
127667,73.46939
127700,73.46939
127733,73.46939
127767,73.46939
127800,73.46939
127833,73.46939
127867,72.83237
127900,72.83237
127933,72.83237
127967,72.83237
128000,72.83237
128033,72.83237
128067,72.83237
128100,72.83237
128133,72.83237
128167,72.83237
128200,72.83237
128233,72.83237
128267,72.83237
128300,72.83237
128333,72.83237
128367,72.83237
128400,72.83237
128433,72.83237
128467,72.83237
128500,72.83237
128533,72.83237
128567,72.83237
128600,72.83237
128633,66.31579
128667,66.31579
128700,66.31579
128733,66.31579
128767,66.31579
128800,66.31579
128833,66.31579
128867,66.31579
128900,66.31579
128933,66.31579
128967,66.31579
129000,66.31579
129033,66.31579
129067,66.31579
129100,66.31579
129133,64.28571
129167,64.28571
129200,64.28571
129233,64.28571
129267,64.28571
129300,64.28571
129333,64.28571
129367,64.28571
129400,64.28571
129433,64.28571
129467,64.28571
129500,64.28571
129533,64.28571
129567,64.28571
129600,64.28571
129633,64.28571
129667,64.28571
129700,64.28571
129733,64.28571
129767,64.28571
129800,64.28571
129833,64.28571
129867,62.5
129900,62.5
129933,62.5
129967,62.5
130000,62.5
130033,62.5
130067,62.5
130100,62.5
130133,57.14286
130167,56.84211
130200,56.84211
130233,56.84211
130267,56.84211
130300,56.84211
130333,56.84211
130367,56.84211
130400,56.84211
130433,56.84211
130467,56.84211
130500,56.84211
130533,56.84211
130567,56.84211
130600,56.84211
130633,56.84211
130667,56.96202
130700,56.96202
130733,56.96202
130767,56.96202
130800,56.96202
130833,56.96202
130867,56.96202
130900,56.96202
130933,56.96202
130967,56.96202
131000,56.96202
131033,56.96202
131067,56.96202
131100,58.06452
131133,56.96202
131167,57.44681
131200,57.44681
131233,58.06452
131267,58.06452
131300,58.06452
131333,58.06452
131367,58.06452
131400,58.06452
131433,58.06452
131467,58.06452
131500,58.06452
131533,58.06452
131567,58.06452
131600,58.06452
131633,58.06452
131667,58.06452
131700,58.06452
131733,55.55556
131767,55.55556
131800,55.55556
131833,58.69565
131867,58.69565
131900,58.69565
131933,58.69565
131967,58.69565
132000,58.69565
132033,58.69565
132067,58.69565
132100,58.69565
132133,58.69565
132167,58.69565
132200,58.69565
132233,58.69565
132267,58.69565
132300,58.37838000000001
132333,58.37838000000001
132367,58.37838000000001
132400,58.37838000000001
132433,58.37838000000001
132467,58.37838000000001
132500,57.69231
132533,57.69231
132567,57.69231
132600,57.69231
132633,57.69231
132667,57.69231
132700,57.69231
132733,57.69231
132767,58.69565
132800,58.69565
132833,58.69565
132867,58.69565
132900,58.69565
132933,58.69565
132967,58.69565
133000,58.69565
133033,58.69565
133067,58.69565
133100,58.69565
133133,58.69565
133167,58.69565
133200,58.69565
133233,58.69565
133267,58.69565
133300,58.69565
133333,58.69565
133367,58.69565
133400,58.69565
133433,58.69565
133467,61.36364
133500,61.36364
133533,61.36364
133567,61.36364
133600,61.36364
133633,61.36364
133667,61.36364
133700,61.36364
133733,61.36364
133767,61.36364
133800,61.36364
133833,61.36364
133867,61.36364
133900,61.36364
133933,61.36364
133967,61.36364
134000,61.36364
134033,61.36364
134067,61.36364
134100,61.36364
134133,61.36364
134167,61.36364
134200,61.36364
134233,61.36364
134267,60.0
134300,60.0
134333,60.0
134367,60.0
134400,63.31658
134433,64.28571
134467,64.28571
134500,64.28571
134533,64.28571
134567,64.28571
134600,64.28571
134633,64.28571
134667,64.28571
134700,64.28571
134733,64.28571
134767,64.28571
134800,64.28571
134833,64.28571
134867,67.37968000000001
134900,67.37968000000001
134933,67.37968000000001
134967,67.37968000000001
135000,77.00535
135033,77.00535
135067,77.00535
135100,77.00535
135133,77.00535
135167,77.00535
135200,77.00535
135233,77.00535
135267,77.00535
135300,77.00535
135333,77.00535
135367,77.00535
135400,77.00535
135433,78.26087
135467,80.19802
135500,80.19802
135533,80.19802
135567,79.55801
135600,79.55801
135633,79.55801
135667,79.55801
135700,79.12088
135733,79.12088
135767,79.12088
135800,79.12088
135833,79.12088
135867,79.12088
135900,79.12088
135933,79.12088
135967,79.12088
136000,79.12088
136033,81.40704000000002
136067,81.40704000000002
136100,81.40704000000002
136133,81.40704000000002
136167,81.40704000000002
136200,81.40704000000002
136233,81.81818
136267,81.81818
136300,81.81818
136333,81.81818
136367,81.81818
136400,81.81818
136433,81.81818
136467,77.41936
136500,77.41936
136533,77.41936
136567,87.09676999999998
136600,87.09676999999998
136633,87.09676999999998
136667,87.09676999999998
136700,87.09676999999998
136733,87.09676999999998
136767,87.09676999999998
136800,87.09676999999998
136833,87.09676999999998
136867,87.09676999999998
136900,87.09676999999998
136933,87.09676999999998
136967,94.11765
137000,94.18604
137033,94.18604
137067,94.18604
137100,94.18604
137133,94.18604
137167,94.18604
137200,94.18604
137233,94.18604
137267,94.18604
137300,94.18604
137333,94.18604
137367,94.18604
137400,94.18604
137433,94.18604
137467,94.18604
137500,94.18604
137533,94.18604
137567,94.18604
137600,83.72093000000002
137633,83.72093000000002
137667,93.75
137700,93.75
137733,93.75
137767,93.75
137800,93.75
137833,93.75
137867,93.75
137900,93.75
137933,93.75
137967,93.75
138000,93.75
138033,93.75
138067,93.75
138100,94.18604
138133,94.18604
138167,94.18604
138200,94.18604
138233,94.18604
138267,94.18604
138300,94.18604
138333,93.75
138367,93.75
138400,93.75
138433,93.75
138467,93.75
138500,93.75
138533,93.75
138567,93.75
138600,93.75
138633,93.75
138667,93.75
138700,93.75
138733,93.75
138767,93.10345
138800,93.10345
138833,93.10345
138867,93.10345
138900,94.24084
138933,94.24084
138967,94.24084
139000,94.24084
139033,94.24084
139067,94.24084
139100,94.24084
139133,94.24084
139167,94.24084
139200,94.24084
139233,94.24084
139267,94.24084
139300,94.24084
139333,94.24084
139367,92.57143
139400,94.73684
139433,94.73684
139467,94.73684
139500,94.73684
139533,94.73684
139567,94.73684
139600,94.73684
139633,94.73684
139667,94.73684
139700,94.73684
139733,94.73684
139767,94.73684
139800,94.73684
139833,94.73684
139867,94.73684
139900,93.64162
139933,95.2381
139967,95.2381
140000,95.2381
140033,95.2381
140067,95.2381
140100,95.2381
140133,95.2381
140167,95.2381
140200,95.2381
140233,95.2381
140267,95.2381
140300,95.2381
140333,95.2381
140367,95.2381
140400,95.2381
140433,95.2381
140467,94.73684
140500,94.73684
140533,96.77419
140567,97.29729
140600,97.29729
140633,97.29729
140667,97.29729
140700,97.29729
140733,97.29729
140767,97.29729
140800,97.29729
140833,100.5076
140867,100.5076
140900,100.5076
140933,100.5076
140967,100.5076
141000,100.5076
141033,100.5076
141067,101.1236
141100,101.1236
141133,101.1236
141167,101.1236
141200,101.1236
141233,101.1236
141267,101.1236
141300,101.1236
141333,101.1236
141367,101.6949
141400,101.6949
141433,105.3191
141467,105.3191
141500,105.3191
141533,105.3191
141567,109.0909
141600,109.0909
141633,109.0909
141667,109.0909
141700,109.0909
141733,109.3923
141767,109.3923
141800,109.3923
141833,109.3923
141867,109.3923
141900,109.3923
141933,109.3923
141967,110.7692
142000,110.7692
142033,110.7692
142067,110.7692
142100,110.7692
142133,110.7692
142167,110.7692
142200,110.7692
142233,110.7692
142267,110.7692
142300,117.1598
142333,120.0
142367,120.0
142400,120.0
142433,120.0
142467,120.0
142500,120.0
142533,120.0
142567,120.0
142600,120.0
142633,120.0
142667,120.0
142700,120.0
142733,121.875
142767,121.875
142800,121.875
142833,121.875
142867,121.875
142900,121.875
142933,121.875
142967,121.875
143000,121.875
143033,121.875
143067,121.875
143100,124.1379
143133,124.1379
143167,128.5714
143200,128.5714
143233,128.5714
143267,128.5714
143300,128.5714
143333,128.5714
143367,128.5714
143400,128.5714
143433,128.5714
143467,128.5714
143500,129.8969
143533,130.5699
143567,130.5699
143600,131.25
143633,131.25
143667,131.9372
143700,131.9372
143733,131.9372
143767,131.9372
143800,131.9372
143833,122.5131
143867,125.3731
143900,129.2818
143933,129.2818
143967,129.2818
144000,129.2818
144033,129.2818
144067,129.2818
144100,129.2818
144133,129.2818
144167,119.337
144200,119.337
144233,119.337
144267,119.337
144300,119.337
144333,118.7817
144367,119.3878
144400,119.3878
144433,119.3878
144467,120.6186
144500,120.6186
144533,120.6186
144567,121.3483
144600,121.3483
144633,101.1236
144667,101.1236
144700,101.1236
144733,101.1236
144767,101.1236
144800,101.1236
144833,100.5076
144867,100.5076
144900,100.5076
144933,100.5076
144967,110.0
145000,110.7692
145033,115.2709
145067,115.2709
145100,118.6813
145133,118.6813
145167,118.6813
145200,118.6813
145233,118.6813
145267,118.6813
145300,118.6813
145333,118.6813
145367,118.6813
145400,118.6813
145433,118.6813
145467,118.6813
145500,119.3878
145533,119.3878
145567,119.3878
145600,119.3878
145633,119.3878
145667,119.3878
145700,119.3878
145733,119.3878
145767,128.5714
145800,128.5714
145833,129.2818
145867,129.2818
145900,129.2818
145933,129.8969
145967,129.8969
146000,129.8969
146033,129.8969
146067,129.8969
146100,129.8969
146133,129.8969
146167,129.8969
146200,129.8969
146233,129.8969
146267,129.8969
146300,129.2818
146333,130.5699
146367,130.5699
146400,130.5699
146433,130.5699
146467,130.5699
146500,130.5699
146533,130.5699
146567,130.5699
146600,130.5699
146633,129.8969
146667,129.8969
146700,129.8969
146733,129.2818
146767,129.2818
146800,129.2818
146833,129.2818
146867,129.2818
146900,129.2818
146933,129.2818
146967,129.2818
147000,129.2818
147033,129.2818
147067,129.2818
147100,129.2818
147133,129.2818
147167,127.8107
147200,127.8107
147233,127.8107
147267,127.8107
147300,127.8107
147333,118.1818
147367,127.0588
147400,127.0588
147433,116.4179
147467,116.4179
147500,116.4179
147533,107.4627
147567,121.3483
147600,121.3483
147633,121.3483
147667,111.236
147700,111.236
147733,111.236
147767,111.236
147800,111.236
147833,111.236
147867,111.236
147900,111.236
147933,111.236
147967,111.236
148000,101.1236
148033,101.1236
148067,101.1236
148100,100.0
148133,100.0
148167,100.0
148200,100.0
148233,100.0
148267,100.0
148300,100.0
148333,88.52459
148367,88.52459
148400,88.52459
148433,83.23699
148467,83.23699
148500,83.23699
148533,72.83237
148567,72.83237
148600,72.83237
148633,72.83237
148667,72.83237
148700,72.83237
148733,72.83237
148767,72.83237
148800,72.83237
148833,72.83237
148867,72.83237
148900,72.83237
148933,72.83237
148967,72.83237
149000,72.83237
149033,72.83237
149067,72.83237
149100,72.83237
149133,72.83237
149167,72.48321999999997
149200,72.48321999999997
149233,72.48321999999997
149267,68.47825999999999
149300,68.47825999999999
149333,68.47825999999999
149367,68.47825999999999
149400,68.47825999999999
149433,68.47825999999999
149467,68.47825999999999
149500,68.85246
149533,68.85246
149567,68.85246
149600,68.85246
149633,68.85246
149667,68.85246
149700,68.85246
149733,68.85246
149767,68.85246
149800,68.85246
149833,68.85246
149867,68.85246
149900,68.85246
149933,68.85246
149967,68.85246
150000,69.23076999999999
150033,69.23076999999999
150067,69.23076999999999
150100,69.23076999999999
150133,69.23076999999999
150167,69.23076999999999
150200,69.23076999999999
150233,69.23076999999999
150267,69.23076999999999
150300,69.23076999999999
150333,69.23076999999999
150367,69.23076999999999
150400,69.23076999999999
150433,69.23076999999999
150467,69.23076999999999
150500,69.23076999999999
150533,69.23076999999999
150567,69.23076999999999
150600,69.23076999999999
150633,69.23076999999999
150667,69.23076999999999
150700,69.23076999999999
150733,69.23076999999999
150767,68.78981
150800,68.78981
150833,68.78981
150867,68.78981
150900,68.78981
150933,68.78981
150967,68.78981
151000,68.78981
151033,68.78981
151067,68.78981
151100,68.78981
151133,68.78981
151167,68.78981
151200,65.96859
151233,65.96859
151267,65.96859
151300,65.96859
151333,65.96859
151367,65.96859
151400,65.96859
151433,65.96859
151467,71.64179
151500,65.96859
151533,70.93596
151567,70.93596
151600,70.39106
151633,70.39106
151667,70.39106
151700,70.39106
151733,70.39106
151767,70.39106
151800,70.39106
151833,70.39106
151867,70.39106
151900,70.39106
151933,70.39106
151967,70.39106
152000,70.39106
152033,70.39106
152067,70.39106
152100,70.39106
152133,70.39106
152167,70.39106
152200,70.39106
152233,70.39106
152267,70.39106
152300,70.39106
152333,70.93596
152367,70.39106
152400,71.18644
152433,71.18644
152467,71.18644
152500,71.18644
152533,71.18644
152567,71.18644
152600,71.18644
152633,71.18644
152667,71.18644
152700,71.18644
152733,71.18644
152767,71.18644
152800,71.18644
152833,71.18644
152867,71.18644
152900,71.18644
152933,74.6114
152967,74.6114
153000,74.6114
153033,74.6114
153067,74.6114
153100,74.6114
153133,74.6114
153167,74.6114
153200,74.6114
153233,74.6114
153267,74.6114
153300,74.6114
153333,76.36364
153367,76.36364
153400,76.36364
153433,76.36364
153467,76.36364
153500,76.36364
153533,76.36364
153567,76.36364
153600,76.36364
153633,76.36364
153667,76.36364
153700,76.36364
153733,65.45454000000001
153767,65.45454000000001
153800,65.45454000000001
153833,65.625
153867,65.625
153900,65.625
153933,65.625
153967,65.625
154000,65.625
154033,65.625
154067,65.625
154100,65.625
154133,65.625
154167,65.625
154200,65.625
154233,65.625
154267,62.7907
154300,62.7907
154333,62.7907
154367,62.7907
154400,62.7907
154433,62.7907
154467,62.7907
154500,62.7907
154533,62.7907
154567,62.7907
154600,62.7907
154633,62.7907
154667,62.7907
154700,62.7907
154733,63.31658
154767,63.31658
154800,63.31658
154833,63.31658
154867,63.31658
154900,63.31658
154933,65.85365999999999
154967,65.85365999999999
155000,65.85365999999999
155033,65.85365999999999
155067,65.85365999999999
155100,65.85365999999999
155133,65.85365999999999
155167,65.85365999999999
155200,65.85365999999999
155233,65.85365999999999
155267,65.85365999999999
155300,65.85365999999999
155333,65.85365999999999
155367,65.85365999999999
155400,65.85365999999999
155433,65.85365999999999
155467,65.85365999999999
155500,65.85365999999999
155533,65.85365999999999
155567,65.85365999999999
155600,68.10811
155633,68.10811
155667,68.10811
155700,68.10811
155733,68.10811
155767,68.10811
155800,68.10811
155833,65.85365999999999
155867,65.85365999999999
155900,65.85365999999999
155933,65.85365999999999
155967,65.85365999999999
156000,65.85365999999999
156033,65.85365999999999
156067,65.85365999999999
156100,63.380280000000006
156133,63.380280000000006
156167,63.380280000000006
156200,63.380280000000006
156233,57.75401
156267,57.75401
156300,57.75401
156333,57.75401
156367,57.75401
156400,57.75401
156433,57.75401
156467,57.75401
156500,57.75401
156533,57.75401
156567,57.75401
156600,67.37968000000001
156633,67.37968000000001
156667,67.37968000000001
156700,67.37968000000001
156733,67.37968000000001
156767,67.37968000000001
156800,67.37968000000001
156833,67.08074
156867,67.08074
156900,67.08074
156933,67.08074
156967,64.28571
157000,64.28571
157033,65.85365999999999
157067,65.85365999999999
157100,68.10811
157133,67.74194
157167,67.74194
157200,67.74194
157233,67.74194
157267,67.74194
157300,67.74194
157333,68.85246
157367,70.78650999999998
157400,70.78650999999998
157433,70.78650999999998
157467,70.78650999999998
157500,75.39267
157533,75.39267
157567,75.39267
157600,75.39267
157633,75.39267
157667,75.39267
157700,75.39267
157733,75.39267
157767,75.39267
157800,75.39267
157833,75.39267
157867,84.81676
157900,84.81676
157933,94.24084
157967,93.75
158000,94.24084
158033,94.24084
158067,94.24084
158100,94.24084
158133,94.24084
158167,94.24084
158200,94.24084
158233,94.24084
158267,94.24084
158300,94.24084
158333,94.24084
158367,94.24084
158400,94.24084
158433,95.85799
158467,98.36066
158500,98.36066
158533,98.36066
158567,98.36066
158600,98.36066
158633,98.36066
158667,98.36066
158700,98.36066
158733,98.36066
158767,98.36066
158800,98.36066
158833,98.36066
158867,101.0204
158900,98.36066
158933,100.0
158967,100.0
159000,100.0
159033,100.0
159067,100.0
159100,100.0
159133,98.36066
159167,98.36066
159200,98.36066
159233,98.36066
159267,98.36066
159300,98.36066
159333,98.36066
159367,98.36066
159400,98.36066
159433,98.36066
159467,98.36066
159500,98.36066
159533,98.36066
159567,98.36066
159600,98.36066
159633,98.36066
159667,98.36066
159700,98.36066
159733,98.9011
159767,98.9011
159800,98.9011
159833,89.01099
159867,91.13924
159900,89.01099
159933,89.01099
159967,89.01099
160000,89.01099
160033,89.01099
160067,89.01099
160100,89.01099
160133,89.01099
160167,89.01099
160200,89.01099
160233,89.01099
160267,89.01099
160300,89.01099
160333,89.01099
160367,89.01099
160400,89.01099
160433,89.01099
160467,89.01099
160500,89.01099
160533,89.01099
160567,89.01099
160600,69.23076999999999
160633,59.34066
160667,58.06452
160700,58.06452
160733,58.06452
160767,58.06452
160800,58.06452
160833,58.06452
160867,58.06452
160900,58.37838000000001
160933,58.37838000000001
160967,58.37838000000001
161000,58.37838000000001
161033,58.37838000000001
161067,58.37838000000001
161100,58.06452
161133,58.06452
161167,58.06452
161200,58.06452
161233,58.06452
161267,58.06452
161300,58.06452
161333,58.06452
161367,58.06452
161400,58.06452
161433,58.06452
161467,58.06452
161500,58.06452
161533,58.06452
161567,62.5
161600,62.5
161633,62.5
161667,62.5
161700,62.5
161733,62.5
161767,62.5
161800,62.5
161833,62.5
161867,62.5
161900,62.5
161933,62.5
161967,62.5
162000,62.5
162033,62.5
162067,62.5
162100,62.5
162133,62.5
162167,59.66851
162200,59.66851
162233,59.66851
162267,59.66851
162300,59.66851
162333,59.66851
162367,59.66851
162400,59.66851
162433,59.66851
162467,59.66851
162500,59.66851
162533,59.66851
162567,59.66851
162600,59.66851
162633,59.66851
162667,60.0
162700,60.0
162733,60.0
162767,60.0
162800,60.0
162833,60.0
162867,60.0
162900,60.0
162933,60.0
162967,59.21053000000001
163000,59.21053000000001
163033,59.21053000000001
163067,59.21053000000001
163100,59.21053000000001
163133,59.21053000000001
163167,59.21053000000001
163200,59.21053000000001
163233,59.21053000000001
163267,58.06452
163300,58.06452
163333,58.06452
163367,58.06452
163400,58.06452
163433,58.06452
163467,58.06452
163500,58.06452
163533,58.06452
163567,58.06452
163600,58.06452
163633,58.06452
163667,58.06452
163700,58.06452
163733,58.06452
163767,58.06452
163800,58.06452
163833,58.06452
163867,58.06452
163900,56.60378000000001
163933,56.60378000000001
163967,56.60378000000001
164000,56.60378000000001
164033,56.60378000000001
164067,56.60378000000001
164100,56.60378000000001
164133,56.60378000000001
164167,56.60378000000001
164200,56.60378000000001
164233,56.60378000000001
164267,56.60378000000001
164300,56.60378000000001
164333,56.60378000000001
164367,56.60378000000001
164400,55.95855
164433,55.95855
164467,55.95855
164500,55.95855
164533,55.95855
164567,55.95855
164600,55.95855
164633,55.95855
164667,55.95855
164700,55.95855
164733,55.95855
164767,55.95855
164800,56.25
164833,56.25
164867,56.25
164900,56.25
164933,56.25
164967,56.25
165000,56.25
165033,56.25
165067,56.25
165100,56.25
165133,56.25
165167,56.25
165200,56.25
165233,56.25
165267,56.25
165300,56.25
165333,56.25
165367,56.25
165400,56.25
165433,56.25
165467,56.25
165500,56.25
165533,56.25
165567,56.25
165600,55.10204
165633,56.25
165667,54.54546
165700,54.54546
165733,54.54546
165767,54.54546
165800,54.54546
165833,54.54546
165867,54.54546
165900,52.02312
165933,53.33333
165967,49.45055
166000,49.45055
166033,49.45055
166067,49.45055
166100,49.45055
166133,49.45055
166167,49.45055
166200,49.45055
166233,49.45055
166267,49.45055
166300,49.45055
166333,49.45055
166367,49.45055
166400,49.45055
166433,49.45055
166467,49.45055
166500,49.45055
166533,49.45055
166567,49.45055
166600,49.45055
166633,49.45055
166667,49.45055
166700,49.45055
166733,47.68212
166767,47.68212
166800,47.68212
166833,47.68212
166867,47.68212
166900,47.68212
166933,47.68212
166967,47.68212
167000,47.68212
167033,49.18033
167067,49.18033
167100,49.18033
167133,49.18033
167167,49.18033
167200,49.18033
167233,49.18033
167267,49.18033
167300,49.18033
167333,49.18033
167367,49.18033
167400,49.18033
167433,49.18033
167467,49.18033
167500,49.18033
167533,49.18033
167567,49.18033
167600,49.18033
167633,49.18033
167667,49.18033
167700,49.18033
167733,49.18033
167767,48.97959
167800,48.97959
167833,48.97959
167867,48.97959
167900,48.97959
167933,48.97959
167967,48.97959
168000,48.97959
168033,49.31507
168067,49.31507
168100,49.31507
168133,49.31507
168167,49.31507
168200,49.31507
168233,49.31507
168267,49.31507
168300,49.31507
168333,49.31507
168367,49.31507
168400,49.31507
168433,49.31507
168467,49.31507
168500,49.31507
168533,49.31507
168567,49.31507
168600,49.31507
168633,49.31507
168667,49.31507
168700,49.31507
168733,49.31507
168767,49.31507
168800,49.31507
168833,49.31507
168867,49.31507
168900,49.31507
168933,49.31507
168967,49.31507
169000,47.78761
169033,47.78761
169067,47.78761
169100,47.78761
169133,47.78761
169167,47.78761
169200,41.6185
169233,41.6185
169267,41.6185
169300,41.6185
169333,41.6185
169367,41.6185
169400,41.6185
169433,41.6185
169467,41.6185
169500,41.6185
169533,41.6185
169567,41.6185
169600,41.6185
169633,41.6185
169667,41.6185
169700,41.6185
169733,41.6185
169767,41.6185
169800,41.6185
169833,41.6185
169867,41.6185
169900,41.6185
169933,41.6185
169967,41.6185
170000,44.55445
170033,41.6185
170067,44.11765
170100,42.10526
170133,42.10526
170167,42.10526
170200,42.10526
170233,42.10526
170267,42.10526
170300,42.10526
170333,42.10526
170367,42.10526
170400,42.10526
170433,42.10526
170467,42.10526
170500,42.10526
170533,42.10526
170567,42.10526
170600,42.10526
170633,42.10526
170667,42.10526
170700,42.10526
170733,48.12834
170767,42.10526
170800,42.10526
170833,42.10526
170867,42.10526
170900,42.10526
170933,42.10526
170967,42.10526
171000,42.10526
171033,42.10526
171067,42.10526
171100,42.10526
171133,42.10526
171167,42.10526
171200,43.90244000000001
171233,43.90244000000001
171267,43.90244000000001
171300,43.90244000000001
171333,43.90244000000001
171367,43.90244000000001
171400,44.17178
171433,44.44444
171467,44.44444
171500,44.44444
171533,44.44444
171567,44.44444
171600,44.44444
171633,44.17178
171667,44.17178
171700,44.17178
171733,44.17178
171767,44.17178
171800,44.17178
171833,44.17178
171867,44.17178
171900,44.17178
171933,44.17178
171967,44.17178
172000,44.17178
172033,44.17178
172067,44.17178
172100,44.17178
172133,44.17178
172167,44.17178
172200,44.44444
172233,44.44444
172267,44.44444
172300,47.36842
172333,47.36842
172367,47.36842
172400,47.36842
172433,47.36842
172467,47.36842
172500,47.36842
172533,47.36842
172567,47.36842
172600,47.36842
172633,47.36842
172667,47.36842
172700,47.36842
172733,47.36842
172767,47.36842
172800,45.56962
172833,45.56962
172867,45.56962
172900,45.56962
172933,45.56962
172967,45.56962
173000,45.56962
173033,45.56962
173067,45.56962
173100,45.56962
173133,45.56962
173166,45.56962
173200,45.56962
173233,45.56962
173266,45.56962
173300,45.56962
173333,45.56962
173366,45.56962
173400,45.56962
173433,45.56962
173466,45.56962
173500,45.56962
173533,45.56962
173566,45.56962
173600,45.56962
173633,45.56962
173666,45.56962
173700,45.56962
173733,45.56962
173766,45.56962
173800,45.56962
173833,45.56962
173866,45.56962
173900,45.56962
173933,45.56962
173966,45.56962
174000,45.56962
174033,45.56962
174066,45.56962
174100,45.56962
174133,45.56962
174166,45.56962
174200,45.56962
174233,45.56962
174266,45.56962
174300,45.56962
174333,45.56962
174366,45.56962
174400,45.56962
174433,45.56962
174466,45.56962
174500,45.56962
174533,45.56962
174566,45.56962
174600,45.56962
174633,45.56962
174666,45.56962
174700,45.56962
174733,45.56962
174766,45.56962
174800,45.56962
174833,45.56962
174866,45.56962
174900,45.56962
174933,45.56962
174966,45.56962
175000,45.56962
175033,45.56962
175066,45.56962
175100,45.56962
175133,45.56962
175166,45.56962
175200,45.56962
175233,45.56962
175266,45.56962
175300,45.56962
175333,45.56962
175366,45.56962
175400,45.56962
175433,45.56962
175466,45.56962
175500,45.56962
175533,45.56962
175566,45.56962
175600,45.56962
175633,45.56962
175666,45.56962
175700,45.56962
175733,45.56962
175766,45.56962
175800,45.56962
175833,45.56962
175866,45.56962
175900,45.56962
175933,45.56962
175966,45.56962
176000,45.56962
176033,45.56962
176066,45.56962
176100,45.56962
176133,45.56962
176166,45.56962
176200,45.56962
176233,45.56962
176266,45.56962
176300,45.56962
176333,45.56962
176366,45.56962
176400,45.56962
176433,45.56962
176466,45.56962
176500,45.56962
176533,45.56962
176566,45.56962
176600,45.56962
176633,45.56962
176666,45.56962
176700,45.56962
176733,45.56962
176766,45.56962
176800,45.56962
176833,45.56962
176866,45.56962
176900,45.56962
176933,45.56962
176966,45.56962
177000,45.56962
177033,45.56962
177066,45.56962
177100,45.56962
177133,45.56962
177166,45.56962
177200,45.56962
177233,45.56962
177266,45.56962
177300,45.56962
177333,45.56962
177366,45.56962
177400,45.56962
177433,45.56962
177466,45.56962
177500,45.56962
177533,45.56962
177566,45.56962
177600,45.56962
177633,45.56962
177666,45.56962
177700,45.56962
177733,45.56962
177766,45.56962
177800,45.56962
177833,45.56962
177866,45.56962
177900,45.56962
177933,45.56962
177966,45.56962
178000,45.56962
178033,45.56962
178066,45.56962
178100,45.56962
178133,45.56962
178166,45.56962
178200,45.56962
178233,45.56962
178266,45.56962
178300,45.56962
178333,45.56962
178366,45.56962
178400,45.56962
178433,45.56962
178466,45.56962
178500,45.56962
178533,45.56962
178566,45.56962
178600,45.56962
178633,45.56962
178666,45.56962
178700,45.56962
178733,45.56962
178766,45.56962
178800,45.56962
178833,45.56962
178866,45.56962
178900,45.56962
178933,45.56962
178966,45.56962
179000,45.56962
179033,45.56962
179066,45.56962
179100,45.56962
179133,45.56962
179166,45.56962
179200,45.56962
179233,45.56962
179266,45.56962
179300,45.56962
179333,45.56962
179366,45.56962
179400,45.56962
179433,45.56962
179466,45.56962
179500,45.56962
179533,45.56962
179566,45.56962
179600,45.56962
179633,45.56962
179666,45.56962
179700,45.56962
179733,45.56962
179766,45.56962
179800,45.56962
179833,45.56962
179866,45.56962
179900,45.56962
179933,45.56962
179966,45.56962
