B,G,R,Time[ms]
70.21230158730158,62.95543546365914,49.03456558061821,0.0
70.546152057661,62.88214627089307,49.385491746105565,33.333333333333336
70.56888578883463,62.92614120747113,49.55901728280246,66.66666666666667
70.28819684736641,63.03729334871204,49.2002819428425,100.0
70.62706499922805,62.93644176830836,49.61545983222685,133.33333333333334
70.3879459557209,63.01433775091064,49.355886228009005,166.66666666666666
70.48519736842105,62.81928453947368,49.556435032894726,200.0
70.36908729236093,63.01772197680126,49.28815004262575,233.33333333333331
70.34723190989175,63.02066702833965,49.25260275388153,266.6666666666667
70.45675954592362,62.827347781217746,49.42582559339525,300.0
70.36207606402141,63.027378930574855,49.3627193659616,333.3333333333333
70.43550051599587,62.81630546955625,49.41813725490197,366.6666666666666
70.2537321024389,62.84308639149564,49.16016886650899,400.0
70.54730698341183,62.66672639770633,49.45888797870162,433.33333333333337
70.59402518943274,62.67404771656768,49.49751689535122,466.66666666666674
70.21345879232966,62.61273459812322,48.95226438188496,500.0
70.44135706914346,62.653482972136224,49.21666666666667,533.3333333333334
70.16021521827824,62.69007547939615,48.92225112199103,566.6666666666666
70.58175040849673,62.832567401960794,49.4516441993464,600.0
70.17935887014835,62.63950416581996,48.9579607803292,633.3333333333333
70.22177172582619,62.69323745410037,49.01966034271726,666.6666666666666
70.68403581905203,62.92107971797642,49.5877463846431,700.0
70.5105272675605,63.04985920586942,49.27342478493373,733.3333333333333
70.79074592800083,63.055840854860456,49.51602863367569,766.6666666666667
70.4662140910044,62.92021388131684,48.99478402180751,800.0
70.61953094963476,63.01532743816482,49.571267461232864,833.3333333333335
70.64739202870692,63.000845828527495,49.60312700243497,866.6666666666667
70.4148782872729,63.0738767948124,49.15665688847717,900.0
70.66130975265924,62.88435217224145,49.493015506856345,933.3333333333336
70.27409970524158,62.91716006664104,49.046725618351914,966.6666666666664
70.49160579264384,62.84916057926439,49.35847750865052,1000.0
70.3194925028835,62.92569524541843,49.04918621043189,1033.3333333333335
70.35422778035098,62.97267253358036,49.102979774587,1066.6666666666667
70.54476483403819,62.89132384980136,49.42683583237217,1100.0
70.359733435858,62.908855568371145,49.17541971036781,1133.3333333333333
70.3968782249742,62.6826367389061,49.225722394220846,1166.6666666666667
70.23872549019606,62.73224974200206,49.005417956656345,1200.0
70.6186674933478,62.96644191273347,49.575344235190784,1233.3333333333335
70.51448408570835,62.79137195756189,49.437539005616806,1266.6666666666665
70.37738665019812,62.92216046523596,49.25490196078431,1300.0
70.60836186326382,62.88466127191617,49.563336445689394,1333.3333333333333
70.35757295044003,62.95301322628789,49.23611754413051,1366.6666666666667
70.52206515681208,62.77010183918529,49.48056948877743,1400.0
70.1281364749082,62.670797633618925,48.851132190942465,1433.333333333333
70.11780905752754,62.66393818849449,48.82560689514485,1466.6666666666665
70.33503803453947,62.51559930098684,49.002235814144726,1500.0
70.0916683799342,62.65966796875,48.70132606907895,1533.3333333333335
70.48131127450979,62.70685253267974,49.30200674019608,1566.666666666667
70.40188717532467,62.959491680194816,49.20162844967533,1600.0
70.51344358766234,62.91008015422079,49.41700487012987,1633.333333333333
70.38000408496733,62.73552389705882,49.21823937908497,1666.666666666667
70.30199166280687,62.85860223354433,49.045391384900405,1700.0
70.27399380804954,62.5812693498452,48.95121259029929,1733.3333333333335
70.17084460162263,62.70678177657582,48.78744539213647,1766.6666666666665
70.33552631578948,62.6928339274481,49.12371566366114,1800.0
70.21170112781955,62.6984388053467,48.86531432748538,1833.333333333333
70.12528604118992,62.67573330559601,48.82694508009154,1866.666666666667
70.2709542063821,62.508547451305425,49.19612515540821,1900.0
69.78263469939671,62.45316725608488,48.70522155190347,1933.333333333333
69.95659975036405,62.3321718327439,48.98538589556896,1966.6666666666665
69.73319878381213,62.323678968337184,48.626729922415606,2000.0
69.76838464738923,62.21785937174953,48.74425317245683,2033.333333333333
69.79397233201581,62.20985021843146,48.746437486998126,2066.666666666667
69.59435045948203,62.11192042606516,48.351634294068496,2100.0
69.70321926357396,61.9866080715623,48.62356979405034,2133.333333333333
69.52118415993849,62.15560681789056,48.54622581058568,2166.6666666666665
69.44950980392157,61.883513931888544,48.56674406604747,2200.0
69.36246425653594,62.018356821895416,48.39422487745098,2233.333333333333
69.35664317810458,62.008323120915044,48.38230187908497,2266.6666666666665
69.60184756317224,62.138026864289024,48.74882919046882,2300.0
69.36472852090701,61.975426461410436,48.3664447680466,2333.333333333333
69.84504895502336,62.21803714898344,49.037639825363605,2366.6666666666665
69.36127227517612,61.99953377538333,48.33174471612101,2400.0
69.75307498327415,62.10892388451442,48.81344243734239,2433.333333333333
69.75364108898152,62.117441202202656,48.7820493026607,2466.666666666667
69.57331621866507,62.28365045806907,48.675224000805386,2500.0
69.6890104879161,61.99511070578102,48.72604752495314,2533.333333333333
69.35231927093999,61.90264693835756,48.12904464468564,2566.666666666667
69.70623839678544,62.082831057195904,48.59052414740216,2600.0
69.58024660164739,62.32103693971398,48.5378745767851,2633.333333333333
69.63768262987013,62.353667816558456,48.59981229707793,2666.6666666666665
69.77194400929811,62.27962504421649,48.84205871949063,2700.0
69.65059842118666,62.35785586962057,48.62154316271963,2733.333333333333
69.9306595365419,62.30763941940413,48.84815380697735,2766.666666666666
69.79354242595349,62.47664390945025,48.77770648324008,2800.0
70.22989585979171,62.497383794767586,49.30330200660402,2833.333333333333
70.246634493269,62.49817119634239,49.336423672847346,2866.666666666666
69.70613048368953,62.344743838838326,48.70838020247469,2900.0
69.88020247469066,62.289727988546886,48.99409448818897,2933.333333333333
69.71865732692504,62.356120257695075,48.73363840883526,2966.666666666667
69.8930360977605,62.322681255752116,48.98939053072911,3000.0
69.7546327190596,62.40601098506237,48.73004465889842,3033.333333333333
69.72491145218419,62.424079872696474,48.69773112263231,3066.666666666667
69.88160854893138,62.298087739032624,48.91502198588813,3100.0
69.74867819927108,62.411683178481596,48.673810379343976,3133.333333333333
69.91525075714799,62.38393819619117,48.91383912530158,3166.666666666666
69.81882601525459,62.49726860441146,48.664502164502146,3200.0
70.0439540539142,62.395638226315505,48.890153671030156,3233.333333333333
70.06926406926407,62.44472789115646,48.93320964749535,3266.666666666666
69.8517316017316,62.515383426097706,48.642419088847646,3300.0
70.19784580498866,62.43689445475161,49.18217893217893,3333.333333333333
69.82426139597455,62.434832100170745,48.73537020748176,3366.666666666666
69.88517146915585,62.24726055194806,49.09440949675325,3400.0
69.63550121753248,62.35201907467533,48.73173701298703,3433.333333333333
69.68535777947542,62.40333587980647,48.79187675070028,3466.666666666667
69.77453533496733,62.110549428104584,48.781760620915044,3500.0
69.61473933405382,62.25930214605527,48.414826823117686,3533.333333333333
69.69146026831785,61.9171568627451,48.461971104231175,3566.666666666667
69.60066388760228,62.20418403581905,48.41932993669909,3600.0
69.9170359052712,62.290043290043286,49.01566080977846,3633.333333333334
69.77500961168782,62.096245033961296,48.880174291939,3666.666666666666
69.63656655844156,62.28239143668832,48.58619115259741,3700.0
69.86172650878534,62.27817672523555,49.03481028775146,3733.333333333334
69.68232747644512,62.378609625668446,48.75920550038197,3766.666666666666
69.91259131493507,62.280869521103895,49.17281351461038,3800.0
69.61317619388485,62.35555782799877,48.724818488598004,3833.333333333334
69.49565127888425,62.19229581596419,48.491456950234145,3866.666666666666
69.85770528683913,62.334620104305145,49.0417220574701,3900.0
69.72530422333571,62.37782493097453,48.77101441865221,3933.333333333333
70.0105327743123,62.42195009714695,49.090627876060935,3966.666666666667
69.82246804578821,62.60179148914329,48.86037677737283,4000.0
70.27685950413222,62.579795698372784,49.2348698732098,4033.333333333333
70.3985775971552,62.71686563373127,49.442621285242566,4066.666666666666
70.2931899641577,62.95307219662058,49.193292370711724,4100.0
70.36915456085417,62.85591088753144,49.19185360094451,4133.333333333334
70.33498247783962,63.009843331271895,49.114435168006594,4166.666666666667
70.57815307222424,62.98963092243725,49.51747856886197,4200.0
70.51245696799694,63.2666071656254,49.453907943389005,4233.333333333333
70.39931215030029,63.06945228684359,49.21749396848211,4266.666666666667
70.88029361942405,63.090421436271235,49.74133771366973,4300.0
70.71392496392497,63.23031333745619,49.50252525252525,4333.333333333333
70.84995909602209,63.05580836486347,49.81559975457613,4366.666666666666
70.56699992249864,63.03066470329898,49.327262393758545,4400.0
70.78480456741326,62.96662274923143,49.5940737296236,4433.333333333334
70.78340954300033,62.9753029011341,49.65989821488542,4466.666666666667
70.59877547857087,63.07561548993775,49.278798212302036,4500.0
70.72987312572089,62.93053953607587,49.64447007561196,4533.333333333333
70.6059132314343,63.03574185579743,49.3202614379085,4566.666666666666
70.9859434682964,63.174789915966386,49.7999490705373,4600.0
70.7869620575503,63.302317290552594,49.52034632034632,4633.333333333334
70.7825311942959,63.29910873440285,49.53857906799083,4666.666666666667
71.033203125,63.22727272727274,49.76113534902598,4700.0
70.88109724920749,63.45390632989058,49.539114428878214,4733.333333333333
70.89968039772728,63.2649908685065,49.671139407467535,4766.666666666667
70.7781554383117,63.369013798701296,49.365006087662344,4800.0
71.07226890756303,63.37361853832442,49.658619811561,4833.333333333333
71.09241151005857,63.36620830150242,49.70094219505985,4866.666666666666
70.89103084415585,63.36954646915586,49.51384943181819,4900.0
71.08073762175326,63.379058441558456,49.702744521103895,4933.333333333334
71.13895003162554,63.64321315623024,49.74600885515497,4966.666666666667
71.26814362108479,63.3279602750191,49.83865546218489,5000.0
70.71211965460526,63.03559313322368,49.10120271381579,5033.333333333333
70.6977780053246,63.032894736842096,49.13710833503993,5066.666666666666
70.99526270456505,63.17449460404317,49.613619091047276,5100.0
70.89001225490195,63.29889195261438,49.327895220588246,5133.333333333334
71.04659088019125,63.23374278375422,49.53640548307521,5166.666666666667
70.84161135271229,63.259683120978615,49.30785076676585,5200.0
71.13299893600852,63.16294269645842,49.645868166388006,5233.333333333333
71.11551907584739,63.1692759791255,49.68619851041192,5266.666666666667
70.84901197833219,63.28193586124464,49.45545637191322,5300.0
70.99247606019152,63.17697725084866,49.78793636317575,5333.333333333333
70.83226102941177,63.260697508169926,49.5961754493464,5366.666666666666
71.1289605336298,63.334731416443475,50.00689777148922,5400.0
70.8012766714987,63.25599552402025,49.51509371582616,5433.333333333334
70.80338750286106,63.26171765723152,49.472495613031214,5466.666666666667
71.1473950759665,63.36163064734495,50.013864513864526,5500.0
70.82651872118356,63.241424735268794,49.40302477580179,5533.333333333332
71.07543043157601,63.34170036367336,49.86882327509474,5566.666666666666
70.9223600898693,63.438419117647065,49.626123366013076,5600.0
71.08733246865543,63.318811830828324,49.82932784008546,5633.333333333334
71.09122351923908,63.3205920500496,49.81165280638845,5666.666666666668
70.92615660643342,63.44513648596694,49.6074330385749,5700.0
71.26305267204921,63.394745610662575,50.02094066384725,5733.333333333332
71.02141583906291,63.60323402088108,49.83430099312452,5766.666666666668
71.11385364603358,63.39043957452262,49.969037549660385,5800.0
70.85636233660131,63.38950163398693,49.658726511437905,5833.333333333332
70.88896578239141,63.45139049083686,49.6881712161989,5866.666666666666
71.13763786764707,63.26524203431373,49.90647977941178,5900.0
70.94232987312573,63.34284249647572,49.56406510316546,5933.333333333334
71.04065103165448,63.340023068050755,49.78856849929514,5966.666666666668
70.85987440727925,63.3680635652954,49.51792900166602,6000.0
71.18677826861969,63.33870676070164,49.91102844299776,6033.333333333332
71.18197318453072,63.35322534811026,49.95233666589165,6066.666666666666
70.99881164587046,63.384303391976026,49.51770905990854,6100.0
71.17827895321501,63.39946782402025,49.92293781807848,6133.333333333334
70.97217701309772,63.419773179363965,49.636725309359576,6166.666666666668
71.30545045505673,63.501048164434,50.08449227937417,6200.0
70.84767397154941,63.31272587466359,49.47015250544664,6233.333333333332
70.840317826477,63.31331539151609,49.48937588107139,6266.666666666668
70.99591503267975,63.298917483660134,49.75068933823529,6300.0
70.92872214502599,63.380268642890215,49.60866656373835,6333.333333333332
71.14461427615666,63.31707066028511,49.994493335391894,6366.666666666666
70.9075776143791,63.34681372549021,49.55501940359477,6400.0
71.12002144607844,63.37060866013072,49.681449142156865,6433.333333333334
71.17078046905038,63.43029603998464,49.751172625913114,6466.666666666668
71.0498687664042,63.470176522052384,49.52650403993618,6500.0
71.20945790080737,63.29337434320134,49.760553633218,6533.333333333332
70.95668332692554,63.36245033961298,49.43347430475458,6566.666666666666
71.13089837242087,63.30826605151865,49.6877611175189,6600.0
70.88771446078431,63.33494178921569,49.47931985294118,6633.333333333334
70.89256535947713,63.320031658496724,49.482204861111114,6666.666666666668
71.19462316176471,63.223498774509814,49.888761233660134,6700.0
70.87083843954248,63.26932700163399,49.56173406862745,6733.333333333332
71.04993872549021,63.231260212418306,49.93869995915033,6766.666666666668
70.87120338331411,63.36578239138793,49.72451621171346,6800.0
71.1848849776131,63.26413977664557,49.98044362101796,6833.333333333332
71.22340589779219,63.255622458957326,49.96250836292521,6866.666666666666
70.96582780093664,63.36714528331017,49.715094436724826,6900.0
71.20840114702007,63.352217830478686,49.98026298793562,6933.333333333334
71.08849465712211,63.444600062247105,49.76984126984127,6966.666666666668
71.09919261822377,63.280379341279,49.816762783544796,7000.0
70.9042163270537,63.34350890683072,49.57711136742279,7033.333333333332
70.89247725233885,63.34873766500065,49.5524798154556,7066.666666666666
71.07663012711645,63.341387473624614,49.79455509237816,7100.0
70.91575317791158,63.39429262518655,49.54582883021975,7133.333333333334
71.26205547835931,63.33145489166796,49.864675003859816,7166.666666666668
70.92710495963091,63.29293861335386,49.50857362552865,7200.0
71.02192212812493,63.22791892373033,49.82948043030442,7233.333333333332
71.04351364410873,63.21731390351211,49.86409297830676,7266.666666666668
70.81180539660741,63.32990005340658,49.50960046794334,7300.0
71.13066769191337,63.355017301038075,49.87463795975907,7333.333333333332
71.02017394884463,63.3941125006433,49.59850239308322,7366.666666666666
71.18357264165509,63.325304925119646,49.803381194997684,7400.0
70.8998672385621,63.36026858660132,49.52131842320262,7433.333333333334
70.9107434640523,63.36328125,49.50824652777778,7466.666666666668
71.0110423116615,63.15067079463363,49.71313209494325,7500.0
70.76743293057547,63.17750358386238,49.42274216670079,7533.333333333332
70.98882092927632,63.11279296875,49.61392372532895,7566.666666666666
70.83660147450337,63.1874360024575,49.441736637313134,7600.0
71.15714249383282,63.2289870552631,49.911726558327615,7633.333333333334
71.15615065740954,63.225426616820535,49.93837898324051,7666.666666666668
70.86984054322119,63.234683756771204,49.53950815086086,7700.0
71.04585296650959,63.19924507270608,49.876956984344126,7733.333333333332
70.79377431906616,63.230945296406496,49.51199104804049,7766.666666666668
71.09466831351962,63.314806237455606,49.943904070814675,7800.0
70.87453543508906,63.33674227861079,49.538510829168274,7833.333333333332
70.85382545174933,63.349711649365645,49.535947712418306,7866.666666666666
71.07112648981162,63.302165833653724,49.83621683967705,7900.0
70.94297065231322,63.42522106881969,49.71700627963604,7933.333333333334
71.18287787555967,63.397586331120365,50.063378107148374,7966.666666666668
70.99128540305011,63.435140330642064,49.63009099064464,8000.0
71.13474304754583,63.39282327310009,49.844008714596946,8033.333333333332
71.16967832884788,63.37741894143279,49.86469306676919,8066.666666666666
70.95267870927898,63.447969739076726,49.61118830734393,8100.0
71.31932773109243,63.43475935828877,50.19396485867074,8133.333333333332
70.97303284950344,63.46676852559205,49.79045072574485,8166.666666666666
71.13622561885644,63.228500849158564,49.85988883742475,8200.0
71.06107475201965,63.504499437570296,49.800951017486454,8233.333333333332
71.05171796707229,63.49762245628386,49.76040494938133,8266.666666666668
71.09965397923875,63.20166602588749,49.920440856081,8300.0
70.84503396129695,63.352607971293104,49.49183647315135,8333.333333333334
71.07771650326798,63.23327716503268,49.82557189542485,8366.666666666668
70.90824142156862,63.34701797385621,49.52162479575163,8400.0
71.15968217352301,63.31387927720108,49.712033833141106,8433.333333333334
71.12025122549021,63.325137867647065,49.78071384803922,8466.666666666666
71.00337090216664,63.4294169111214,49.5029591889249,8500.0
70.98879523026315,63.12217310855264,49.638671875,8533.333333333334
70.90776523000414,63.254869457107326,49.30146601740572,8566.666666666666
71.27443321078431,63.32809946895425,49.89682904411765,8600.0
70.8749337572867,63.320539026421386,49.41133570545336,8633.333333333332
70.8673126908421,63.330229389052924,49.40288187347011,8666.666666666666
71.10121817858142,63.2500699371837,49.74553037816944,8700.0
70.8114127702363,63.34343891402714,49.396405228758184,8733.333333333332
71.0511267570091,63.21422262598733,49.652989123577356,8766.666666666668
71.01948051948051,63.54062216852914,49.69422631631935,8800.0
71.05502355981152,63.32517606525815,49.80237624765669,8833.333333333334
71.10076040792453,63.29505862007578,49.762569619287405,8866.666666666668
70.93936376633988,63.377348856209146,49.62321282679738,8900.0
71.02775224673205,63.34980085784314,49.80126633986928,8933.333333333334
70.86642156862746,63.35636233660132,49.56564031862745,8966.666666666666
71.14271434063822,63.293835704216356,49.94174035627322,9000.0
70.91650197628458,63.25080611608071,49.486244019138745,9033.333333333334
71.02578211785372,63.43478260869565,49.70614069079542,9066.666666666666
71.15180986061992,63.2023871437487,49.8437695028084,9100.0
70.8608500417711,63.30639097744361,49.66131474519632,9133.333333333332
71.02147909298941,63.1472071978365,49.845589764926146,9166.666666666666
70.7618057000208,63.20321926357395,49.49149677553567,9200.0
71.05887113617376,63.14880952380952,49.84482038429408,9233.333333333332
71.11448941077795,63.1778412665129,49.84905116376599,9266.666666666668
70.80080409356725,63.24493525480368,49.473005430242274,9300.0
70.98900542128995,63.16410802046917,49.84858387799565,9333.333333333334
70.79908954502683,63.22023854937566,49.47005416952774,9366.666666666668
71.01074124740336,63.10731114151087,49.70332370674368,9400.0
70.83547794117648,63.29227941176471,49.460529003267965,9433.333333333334
70.57077814569537,62.93398178807947,49.00600165562914,9466.666666666666
70.98903893593754,63.25469850715904,49.6931665013606,9500.0
70.79616489916329,63.29190508888381,49.528496223392075,9533.333333333334
71.057839351957,63.21553486259369,49.875236581118926,9566.666666666666
70.79896238651101,63.25220620024921,49.51646702779686,9600.0
71.0641291810842,63.23150070485711,49.89288735101885,9633.333333333332
71.08102012046648,63.234140715109575,49.874381648084075,9666.666666666666
70.85469691144431,63.291323849801365,49.582750224272715,9700.0
71.04503396129694,63.231449442522106,49.91872356785852,9733.333333333332
70.67690462533244,63.007743651248894,49.325572300151215,9766.666666666668
71.10416345015696,63.2746384643096,49.92504245792805,9800.0
70.89416890939383,63.314289375881074,49.605843906189925,9833.333333333334
70.90460079456618,63.300525438933754,49.59249006792261,9866.666666666668
71.0170447263873,63.27033192361914,49.79415609381008,9900.0
70.88456589985077,63.43286500952087,49.6285831918069,9933.333333333334
71.03911275796408,63.31434306005867,49.88098914106325,9966.666666666666
70.92479785062905,63.40628794337236,49.65351726988556,10000.0
71.12672049211842,63.31152120979111,49.94919902601564,10033.333333333334
70.99615583075335,63.138725490196066,49.76362229102167,10066.666666666666
70.66170412473275,62.99874850080826,49.2161964853731,10100.0
70.7820542786651,62.85994026749773,49.45344760420724,10133.333333333332
70.7634148848684,63.116467927631575,49.44472142269736,10166.666666666666
70.88229851973685,63.10549444901316,49.551063939144726,10200.0
70.93242756420153,63.36349132828984,49.61278369615562,10233.333333333332
70.92419329936699,63.35216921414234,49.610133292162,10266.666666666668
71.2113549123353,63.43046477850399,49.99559082892416,10300.0
70.86673080923653,63.28770542958186,49.50579883503225,10333.333333333334
71.08769319131163,63.267543859649116,49.748720760233915,10366.666666666668
70.95514898872935,63.3844115073851,49.6298183315321,10400.0
71.0060392680921,63.142269736842096,49.52847450657895,10433.333333333334
70.98828125,63.167223478618425,49.52336040296052,10466.666666666666
70.74678762335526,63.2158203125,49.183362458881575,10500.0
70.99736330124922,63.064867909072284,49.54822854802375,10533.333333333334
70.74154502467105,63.11759868421052,49.28155838815789,10566.666666666666
70.97556023848685,63.02400287828947,49.57717413651316,10600.0
70.80490956072352,63.26108324466739,49.48761209910321,10633.333333333332
70.79768961848305,63.25720727567514,49.50420529969093,10666.666666666666
71.02445302445302,63.143311378605496,49.79296944002826,10700.0
70.88659109477125,63.262510212418306,49.578125,10733.333333333332
71.00486396108832,63.187135836246654,49.86677306581546,10766.666666666668
70.84265216503267,63.29743668300654,49.588465073529406,10800.0
70.99563419117648,63.29541973039216,49.812704248366025,10833.333333333334
71.04308599256697,63.351377675253104,49.89058054594387,10866.666666666668
70.83624247084454,63.41412277329234,49.53997180571575,10900.0
71.05374285130719,63.33279718137255,49.80244076797386,10933.333333333334
70.96093810073049,63.4243239779572,49.66261694220172,10966.666666666666
71.25784954504678,63.397539407920036,49.97723952326029,11000.0
70.92580678104575,63.38947610294118,49.60814950980392,11033.333333333336
70.90663296568627,63.39649714052288,49.608353758169926,11066.666666666664
71.1826733307702,63.28514673843393,49.8803024477765,11100.0
70.99328463411507,63.3679610406254,49.58374983980522,11133.333333333332
71.04598051931538,63.270745911853716,49.7579919127184,11166.666666666664
70.89708435457517,63.312397875817005,49.483966503267965,11200.0
71.08924772523389,63.27571446879406,49.75478662053057,11233.333333333332
71.04365808823529,63.25342116013072,49.747829861111114,11266.666666666668
70.92418300653596,63.36488530052544,49.598718441625024,11300.0
70.99471997949506,63.31431500704858,49.74645649109317,11333.333333333336
70.90531846725621,63.354889145200566,49.467948225041646,11366.666666666668
70.99927476170741,63.136811023622045,49.62450787401575,11400.0
70.58567880794702,62.98626345198676,49.098121895695364,11433.333333333336
70.56273282284769,62.99855132450332,49.1002949089404,11466.666666666664
71.00668174342105,63.10634251644736,49.713070518092096,11500.0
70.73427220394737,63.080283717105246,49.28014494243421,11533.333333333336
70.7630839796944,62.851186641585294,49.36467647589354,11566.666666666664
70.59669647228594,62.92939418146211,49.12528667508439,11600.0
70.82454196407866,62.89852346226196,49.414976679465035,11633.333333333332
70.8212690589866,62.829406027003444,49.379254581857396,11666.666666666664
70.68869035429039,63.11319885316404,49.29833094409175,11700.0
70.9382491735433,63.261488379135436,49.844171902995434,11733.333333333332
70.73504078634038,63.33343466585601,49.564016821198756,11766.666666666668
70.87937517349282,63.24506018623666,49.756807227395456,11800.0
70.68546697958463,63.2892472304237,49.445479092537916,11833.333333333336
70.67867867867868,63.300527418174475,49.41938577232697,11866.666666666668
70.9631076388889,63.34129901960785,49.86292381535948,11900.0
70.7622038398693,63.30655126633985,49.60306883169935,11933.333333333336
71.08953737745098,63.30001531862745,50.03515625,11966.666666666664
70.77421733933522,63.31654840924697,49.72251468680858,12000.0
70.88676912206324,63.14818179524063,49.84111842935371,12033.333333333336
70.90408055113937,63.13344436873849,49.84394478512126,12066.666666666664
70.70790900339466,63.25956325682728,49.48236814105487,12100.0
70.91652733444799,63.17140396210164,49.91533667730658,12133.333333333332
70.45700497972176,62.866753940140676,49.07094820062632,12166.666666666664
70.65873504800041,62.85507469582628,49.395297499871646,12200.0
70.50587812516044,62.873992504748706,49.14415524410904,12233.333333333332
70.49658606704656,62.870347553775865,49.11597104574157,12266.666666666668
70.74574174762284,62.80879738191564,49.37488082047053,12300.0
70.4797872612442,62.806412846147936,49.06003733156051,12333.333333333336
70.65412053491524,62.82592242194891,49.31816205988391,12366.666666666668
70.49204271266494,62.8678063555624,49.09215052107398,12400.0
70.93058955528356,62.994364545083634,49.68255303957568,12433.333333333336
70.97345381937333,63.064739913987296,49.73663731312718,12466.666666666664
70.68239379084967,63.211780024509814,49.434410743464056,12500.0
70.91546501869229,63.17723353933013,49.8583708450955,12533.333333333336
70.76329616814044,63.321107266436,49.576034858387786,12566.666666666664
71.12289279348103,63.43740769034886,50.18370257193786,12600.0
70.74623025063043,63.35193762544387,49.6065565333745,12633.333333333332
70.7260820338634,63.36215326025423,49.566028511141994,12666.666666666664
70.98016056816427,63.3377849827595,49.86040347897689,12700.0
70.71608709273183,63.2734440267335,49.44554093567251,12733.333333333332
70.94494047619047,63.20854218880535,49.71125730994152,12766.666666666668
70.79257894736844,63.38031578947368,49.48921052631579,12800.0
70.8321152476188,63.052214981135066,49.55278224848949,12833.333333333336
70.83045302234771,63.059497110894185,49.57555209625075,12866.666666666668
70.60507638320888,63.15004881137701,49.32898868103744,12900.0
70.97997350993377,63.114410596026495,49.797245033112574,12933.333333333336
70.81028947368421,63.285710526315796,49.59107894736842,12966.666666666664
70.93374060150376,63.11962197159565,49.88995927318295,13000.0
70.73827798663325,63.22397138680033,49.54127506265664,13033.333333333336
70.72467627401838,63.24232456140351,49.47425856307435,13066.666666666664
70.98657999580625,63.22268819459006,49.82947158733487,13100.0
70.79054833298386,63.308633885510595,49.5739410777941,13133.333333333332
71.0369574334242,63.264258754455874,49.83052002516251,13166.666666666664
70.77618525480369,63.25242794486215,49.46916771094402,13200.0
70.97946580206886,63.26519479182749,49.88626421697288,13233.333333333332
71.0165199938243,63.250218722659646,49.87231743090937,13266.666666666668
70.81877752149299,63.2924355210736,49.53208219752569,13300.0
71.0726216412491,63.351903724452754,49.92312480547776,13333.333333333336
71.0480522875817,63.496183006535944,49.76596078431372,13366.666666666668
71.21459694989106,63.309705363626925,50.10755783794999,13400.0
70.81014751091476,63.32351649487199,49.567955772559344,13433.333333333336
70.80547159575292,63.3366658916531,49.525975871244405,13466.666666666664
71.04234157431088,63.34315017179467,49.811904208323654,13500.0
70.80724202237877,63.1353087443017,49.403387898881064,13533.333333333336
70.95758435824659,63.07353095763692,49.45542941238306,13566.666666666664
70.62438644331904,62.91904947409429,49.17322425659004,13600.0
70.79245716034272,62.915825173398616,49.45968482252142,13633.333333333332
70.70443476692348,62.777900894168575,49.33182157858118,13666.666666666664
70.70689962106763,63.201088476895286,49.411764705882355,13700.0
70.87586785687037,63.13407593906564,49.697973093258064,13733.333333333332
70.63163034539474,63.06625205592105,49.210140830592096,13766.666666666668
71.00470897020223,63.2885595182955,49.80121970047861,13800.0
70.71363447990053,63.148673849979275,49.338608578532934,13833.333333333336
70.74474724360306,63.18184418556272,49.32374661951321,13866.666666666668
71.14113408521303,63.154161445279854,49.939875730994146,13900.0
70.86604532163744,63.13609544695071,49.583046157059314,13933.333333333336
70.91708972233734,63.07387070037297,49.75774450891007,13966.666666666664
70.74377984749742,63.071633993826026,49.39674414923089,14000.0
70.94637635756055,63.23451858813701,49.780231829573935,14033.333333333336
71.01027469071084,63.28483434682325,49.90034598448312,14066.666666666664
70.84597368421053,63.368078947368424,49.610815789473676,14100.0
71.05881260611206,63.39786714770798,49.84433361629881,14133.333333333332
70.92611336032388,63.51195930108672,49.692254421478786,14166.666666666664
71.10387209332605,63.496263312762025,50.03504934510325,14200.0
70.76178666459997,63.44886202175204,49.6967630266863,14233.333333333332
70.73329199927664,63.46862486760186,49.66521997468289,14266.666666666668
71.02255289467566,63.33224831434551,49.89710403265389,14300.0
70.8122072976172,63.38003705419175,49.623539704595736,14333.333333333336
71.1460991804129,63.378903413217145,50.08911712833282,14366.666666666668
70.8398952173462,63.382067641871565,49.76753293910157,14400.0
70.83192419443499,62.81846975368428,49.5160851242049,14433.333333333336
70.88615578681805,62.89125407337328,49.57424051298224,14466.666666666664
70.79149551783823,63.36464388126792,49.69986308093725,14500.0
70.80663302848733,62.91390728476821,49.55437296331336,14533.333333333336
70.57145485125619,63.070114580048354,49.22766214653633,14566.666666666664
70.9592146569914,63.22760022644228,49.76161803303999,14600.0
70.48627450980392,62.88318400207765,48.98906635501883,14633.333333333332
70.49107908063887,62.93167121153097,49.120971302428245,14666.666666666664
70.7078301519283,62.795948578106746,49.2141799766264,14700.0
70.60676852479533,62.8928664546071,49.08377222714712,14733.333333333332
70.82745682565789,63.01266961348684,49.51963404605264,14766.666666666668
70.84477764962196,63.25267204921185,49.59333589645009,14800.0
71.07626123366012,63.16896446078432,49.95649509803922,14833.333333333336
71.07289113562092,63.196895424836605,49.96448631535948,14866.666666666668
70.57837977296181,63.02598039215686,49.230908152734784,14900.0
70.83689370485034,63.170381836945296,49.6967750257998,14933.333333333336
70.7246723528188,63.21206053671729,49.4775847722072,14966.666666666664
70.80608852707903,62.99117870324321,49.52823076721725,15000.0
70.68652485957978,63.23874037861452,49.39855939255253,15033.333333333336
70.67456313709174,63.24165279800291,49.37604014978157,15066.666666666664
70.89134376295068,63.108397223373395,49.60953688354745,15100.0
70.79118551241314,63.347541915316846,49.531375132398146,15133.333333333332
70.86653025279735,63.15931931205967,49.65750621632822,15166.666666666664
70.77143379281537,63.27665517961571,49.408599624060145,15200.0
71.00148221343873,63.16002704389432,49.651705845641786,15233.333333333332
71.00702101102559,63.16304347826087,49.68738298314957,15266.666666666668
70.87465925770601,63.29953868735584,49.4852694485217,15300.0
71.18976724680226,63.263682113650646,49.90485426714197,15333.333333333336
70.94338105612616,63.40056022408963,49.810535325241204,15366.666666666668
71.15860740046351,63.42996640887432,50.070697601749856,15400.0
70.90547417913145,63.34973778707794,49.66974088713218,15433.333333333336
70.87416363119686,63.355472887442204,49.623498411222194,15466.666666666664
70.96711601307192,63.23570261437909,49.848320057189554,15500.0
70.59255879438912,62.988684361474675,49.22868540439068,15533.333333333336
70.78289096313293,62.99575011732804,49.363508369400854,15566.666666666664
70.71220330237358,63.15072239422085,49.266382868937036,15600.0
70.90809622280973,63.02376776692929,49.38023191895925,15633.333333333332
70.92372326780621,63.01588880454415,49.39308431275031,15666.666666666664
70.62438644331904,62.94676016101805,48.93831969874042,15700.0
70.89071538884382,62.93990000785279,49.33981624479753,15733.333333333332
70.73391674550615,63.120125091979396,49.20771575738463,15766.666666666668
71.20084210526316,63.232868421052636,49.76150000000001,15800.0
70.79052634378573,63.15042953270035,49.257693023750626,15833.333333333336
70.78773371632224,63.15338173887603,49.246389531636474,15866.666666666668
70.88634474622623,62.854116953106136,49.452985494811905,15900.0
70.94691925597125,63.31681991122384,49.594245402663276,15933.333333333336
70.8289608636977,62.74755735492578,49.328421052631576,15966.666666666664
70.55535762483132,62.83209176788125,49.017246963562755,16000.0
70.4705306122449,62.484816326530606,48.9661768707483,16033.333333333336
70.4767074829932,62.48767346938776,48.98786394557822,16066.666666666664
70.30424489795921,62.55072108843538,48.694231292517,16100.000000000002
70.44279132791328,62.42357723577236,48.859756097560975,16133.333333333332
70.20390243902439,62.51159891598916,48.63934959349594,16166.666666666668
70.4687619047619,62.55368707482994,48.938721088435386,16200.0
69.9983606557377,62.21521857923497,48.285956284153,16233.333333333336
69.9758743169399,62.22612021857922,48.252267759562855,16266.666666666664
70.33795081967213,62.1301912568306,48.72396174863388,16300.0
69.9874043715847,62.15437158469946,48.33177595628416,16333.333333333332
70.46802168021681,62.399620596205956,49.011842818428185,16366.666666666668
70.78595175403599,63.09811431155086,49.36814808904492,16400.0
71.00184626586228,63.03549511129602,49.81142084460162,16433.333333333332
70.91784925890886,62.92397245874067,49.730316409124356,16466.666666666664
70.64463523807032,63.01902991911631,49.21773159175982,16500.0
70.81208282072089,62.884197576106594,49.390964060414106,16533.333333333336
70.62212391696987,63.02044342067377,49.10216475145931,16566.666666666668
70.70601220620698,62.9174652642514,49.22706142059472,16600.0
70.57666905590825,63.0625895965595,49.20540651238992,16633.333333333332
70.59232341585283,63.225603755015534,49.40527922880865,16666.666666666668
70.79652094300755,63.20383510083671,49.64126039520868,16700.0
70.65623966837059,63.26207370107576,49.39406424048219,16733.333333333336
70.7012210568982,63.19334245326039,49.75320464102954,16766.666666666664
70.43104855161158,62.95649734802122,49.325020399836795,16800.0
70.83316802726279,63.14254469621831,49.79921670354264,16833.333333333332
70.69857157485153,62.97181548228548,49.61294286299406,16866.666666666668
70.525390625,63.10919510690789,49.464124177631575,16900.0
70.86885964912281,62.94749742002064,49.705263157894755,16933.333333333332
70.72119293911791,63.28441665380063,49.63949359271268,16966.666666666664
70.79012377782402,63.110359891824416,49.71939359267734,17000.0
70.78669043374927,63.352812007543456,49.74176548089592,17033.333333333336
70.72621069425145,63.29620194534506,49.682800679326846,17066.666666666668
70.9109670114765,63.28557459729298,49.89045854562297,17100.0
70.8154238073182,63.3565436673357,49.64404817044929,17133.333333333332
70.96369203849518,63.34131027739178,49.84902990067418,17166.666666666668
70.77257989810097,63.375611136843176,49.61443054912253,17200.0
70.98205741626793,63.1532400665696,49.65352610775953,17233.333333333336
70.97080915872357,63.13225238292581,49.71964359718193,17266.666666666664
70.62263232090223,63.26874279123415,49.41378956811482,17300.0
70.77427760577915,62.9936790505676,49.536480908152726,17333.333333333332
70.48034103352975,62.94801063774313,49.0918026802941,17366.666666666668
70.78347250215953,62.92157683951522,49.48305106928776,17400.0
70.69532221301284,63.09575735598839,49.36883547451306,17433.333333333332
70.66154682967259,63.12282428512225,49.34244198093659,17466.666666666664
70.82854749626995,62.93126194277937,49.27346019946079,17500.0
70.66376986100569,62.98309033321991,49.10548909771485,17533.333333333336
70.67500324633164,62.830593429424745,49.25308401506298,17566.666666666668
70.47996364108558,62.867108167770425,49.00971302428256,17600.0
70.58358340231787,62.73393522350993,49.17616928807947,17633.333333333332
70.69910915420847,62.8840620520172,49.46111509318042,17666.666666666668
70.49819503960524,62.781301129723396,49.07238021036229,17700.0
70.90485998852793,62.74868331855868,49.45072221932525,17733.333333333336
70.50143400949055,62.822078531574284,48.988866871773475,17766.666666666664
70.68822230879104,62.68284638358654,49.2886118685885,17800.0
70.46503051551746,62.79158550837553,48.96278405401897,17833.333333333332
70.46908193741072,62.78374237112063,48.99516945851189,17866.666666666668
70.68256070640177,62.76486170627191,49.198337878197634,17900.0
70.57490744120561,62.849950461490316,49.027454763518804,17933.333333333332
70.74070501121135,62.87790061010586,49.37610158001773,17966.666666666664
70.55211972675602,62.87265995724046,49.086874902226626,18000.0
70.73895812692288,62.82836210043281,49.428534181571685,18033.333333333336
70.72128070083957,62.8465609845127,49.463263284142464,18066.666666666668
70.58723992282422,62.89930646086458,49.100172081138865,18100.0
70.65299048013243,62.7917011589404,49.251112375827816,18133.33333333333
70.5655629139073,62.896065446045974,49.083859239059855,18166.666666666668
70.9573186629817,62.90616363351931,49.58257287375503,18200.0
70.72384367719812,62.980996256838466,49.24393372248253,18233.333333333336
70.57491234904558,62.89289702636021,49.08289832489287,18266.666666666664
70.76735151483548,62.867601814673826,49.43492204202954,18300.0
70.74244281045752,63.238000408496724,49.48501327614379,18333.33333333333
70.65635631736137,62.87832748993637,49.48336579664978,18366.666666666668
70.6878574346405,63.260671977124176,49.54212622549021,18400.0
70.80734179807494,62.99175711652672,49.609205406512395,18433.33333333333
70.83562871185747,62.98809645709604,49.65802273192709,18466.666666666664
70.62057137005938,63.09361560516077,49.2908816301454,18500.0
70.68201613111036,62.836060504548136,49.32421985724225,18533.333333333336
70.61092054065124,63.06412553757936,49.32725783329921,18566.666666666668
70.8267543859649,63.05931372549019,49.54094427244582,18600.0
70.75527361271305,63.27591951813405,49.496091246956304,18633.33333333333
70.618782249742,63.1187306501548,49.260294117647064,18666.666666666668
70.92143962848297,63.03325593395253,49.739189886480894,18700.0
70.78683546909578,63.28210076681591,49.63100200710205,18733.333333333336
70.99716947146312,63.24651330348411,49.96834954454221,18766.666666666664
70.73956170703576,63.308547994361156,49.591721132897604,18800.0
70.85786893704851,63.06202270381837,49.687951496388024,18833.33333333333
70.98341663462772,63.24295783672947,49.933564013840844,18866.666666666668
70.8103025136273,63.42093569970808,49.62179338138417,18900.0
71.02838248160154,63.29216200916061,49.87998559003653,18933.33333333333
70.79388605836034,63.404533992074526,49.48955277649117,18966.666666666664
71.02877883696297,63.370688987057285,49.88723552662172,19000.0
70.82525162507864,63.38923254351018,49.50269972740617,19033.333333333336
70.79956489830154,63.392299224156005,49.52157160830363,19066.666666666668
70.97415600754876,63.34134514573286,49.76929125602852,19100.0
70.882,63.412000000000006,49.494447368421056,19133.33333333333
71.15340434419382,63.18394945697578,49.89403195488722,19166.666666666668
70.78368421052632,63.21839473684211,49.4481052631579,19200.0
71.03174603174601,63.1063596491228,49.82717209690894,19233.333333333336
71.05764411027569,63.09664786967418,49.865810359231396,19266.666666666664
70.8187105263158,63.23652631578948,49.49031578947368,19300.0
71.04442105263158,63.19647368421053,49.69452631578947,19333.33333333333
70.51968062379834,62.91083635975219,49.046411023285614,19366.666666666668
70.89202002983166,63.03731621564032,49.61847432346046,19400.0
70.66410078840828,63.12481355209886,49.31826656722778,19433.33333333333
70.5624312947422,62.95624312947422,49.13108292892189,19466.666666666664
70.68695257423627,62.8614879299295,49.326960051271094,19500.0
70.7442485172478,63.113061517593536,49.241495784462344,19533.333333333336
70.85167665300115,62.955902449279925,49.53177231157363,19566.666666666668
70.75362127648347,63.086462098625354,49.18500831112635,19600.0
71.07240092504993,63.05707978555661,49.560023126248296,19633.33333333333
71.08719646799119,63.072716282981176,49.567775675391566,19666.666666666668
70.61753663242426,63.03253897898525,49.01965896647025,19700.0
70.70094488188977,62.72635170603674,49.14233595800525,19733.333333333336
70.50889900662251,62.98680670529802,49.157414114238435,19766.666666666664
70.78933096939042,62.936668926317985,49.49296031704647,19800.0
70.62306843267108,63.12348890991275,49.19746662461894,19833.33333333333
70.61195206559445,63.13055818353832,49.20138231893199,19866.666666666668
70.72557129021281,63.028872078109046,49.436222286207894,19900.0
70.57994323557237,63.16403868390624,49.22663723325975,19933.33333333333
70.67288939875894,63.01699953068781,49.452781978411636,19966.666666666664
70.70979532163744,63.30743525480368,49.42609126984127,20000.0
70.85991782816727,63.16847826086956,49.82608695652174,20033.333333333336
70.88451737050136,63.145022883295184,49.84142916579986,20066.666666666668
70.7393744778613,63.242872807017534,49.5032111528822,20100.0
71.0546940267335,63.14802631578947,49.892491645781114,20133.33333333333
70.53726147161218,62.95550087689449,49.21019291678664,20166.666666666668
70.88801399825022,63.223380165714566,49.846070711749256,20200.0
70.70394481903433,63.27419979849647,49.49939290604253,20233.333333333336
70.75372652354748,63.25660699062233,49.53700689762071,20266.666666666664
71.05176885569044,63.29380641145347,49.76325344952796,20300.0
70.90654375960213,63.380673384891814,49.571752206858854,20333.33333333333
70.96930163141371,63.19932067315115,49.674231897483395,20366.666666666668
70.8960991804129,63.356312895528575,49.52144932046893,20400.0
70.97765377560773,63.31842723914336,49.857578340954284,20433.33333333333
70.97744710532434,63.32524735849544,49.878736211217024,20466.666666666664
70.72713059079841,63.26141227732924,49.548865820838145,20500.0
70.73744589873286,62.99642801272358,49.368149345570224,20533.333333333336
70.70253863134658,63.067854514874384,49.18466834857563,20566.666666666668
70.99011878482077,63.04838116261957,49.71071165773152,20600.0
70.46325333333333,62.96741333333333,49.04805333333334,20633.33333333333
70.53695364238409,63.127947019867534,49.22103311258278,20666.666666666668
70.70839819529826,62.98097675523072,49.41563547135959,20700.0
70.49178666666667,62.94677333333333,48.99749333333333,20733.333333333336
70.5365398956003,62.709971236816884,49.13462767657397,20766.666666666664
70.3606122503117,62.671459267315704,48.748919012122975,20800.0
70.71764550264551,62.83693121693122,49.28640211640212,20833.33333333333
70.72248677248676,62.83309523809525,49.31145502645503,20866.666666666668
70.57129021281051,62.98062979347172,49.204774494149675,20900.0
70.70884300740163,62.824386443319035,49.39418257369172,20933.33333333333
70.50483141447368,63.06021278782895,49.3271484375,20966.666666666664
70.8360423116615,62.987100103199175,49.810939112487105,21000.0
70.83736842105263,63.277631578947364,49.56539473684211,21033.333333333336
70.83681578947369,63.28784210526316,49.54318421052632,21066.666666666668
71.09053260641646,63.181668064583775,49.91022751100861,21100.0
70.84650891341256,63.32573747877759,49.583775466893044,21133.33333333333
71.06055802155993,63.17020714436694,49.84564574085818,21166.666666666668
70.94116236948645,63.38488173875985,49.712177711485175,21200.0
70.84941208271387,62.974888498445736,49.58215975131775,21233.333333333336
70.86598188944453,62.98048384916881,49.5732125962968,21266.666666666664
70.61529936477903,63.053953236923896,49.27711852953102,21300.0
70.95758371987023,63.20502989516582,49.8276536986889,21333.33333333333
70.57766650514188,63.01582942981748,49.17291229203683,21366.666666666668
70.77520235467257,63.047908125722685,49.46507410911384,21400.0
70.57452959108588,63.10214968989804,49.13174077578051,21433.33333333333
70.53953877967697,63.070334790461494,49.15142789833259,21466.666666666664
70.81705179282868,62.89915006640106,49.28573705179283,21500.0
70.5718253968254,62.878201058201064,48.922566137566136,21533.333333333336
70.83762845849803,62.70874835309618,49.24927536231884,21566.666666666668
70.50375275938191,62.780262303596935,49.06100506427736,21600.0
70.53252287581701,62.54501960784313,49.170640522875814,21633.33333333333
70.7796439628483,62.911480908152726,49.579824561403505,21666.666666666668
70.44334358867394,62.897220628878344,49.176696042133806,21700.0
70.59862355538242,62.727489936371896,49.35426567978185,21733.333333333336
70.41298532658097,62.78748214517595,49.150499935073356,21766.666666666664
70.74878263572315,63.00212391214257,49.62424886033983,21800.0
70.72496345029239,63.16275062656642,49.42703111946533,21833.33333333333
70.72433688387635,63.142543859649116,49.45645363408521,21866.666666666668
70.81654358227586,63.052111504056576,49.58927085500312,21900.0
70.61375880646497,63.05436697057604,49.338504973062584,21933.33333333333
70.77351844177372,63.00375569830086,49.528931827600495,21966.666666666664
70.60210319104849,63.089929548280146,49.2313769167012,22000.0
70.96972959118287,63.2248366013072,49.76962706651288,22033.333333333336
70.9851339228502,63.227527873894644,49.77265154427784,22066.66666666667
70.62727130325814,63.19196428571429,49.30302318295739,22100.0
70.93776641091219,63.25800201503526,49.738355421219865,22133.33333333333
70.76759926632049,63.32770156811078,49.46412978893797,22166.66666666667
70.83635843561474,63.08997295610568,49.57343457457874,22200.0
70.61436446848346,63.183170376534214,49.272051175369256,22233.333333333336
70.65859962406014,63.22736528822055,49.318843984962406,22266.666666666664
70.67726895980107,63.108397223373395,49.48383754662246,22300.0
70.53374948197266,63.14152507252384,49.32563199336924,22333.33333333333
70.75953170327394,63.04107956900125,49.61883547451306,22366.66666666667
70.5445704181402,63.12921260661536,49.382099022259204,22400.0
70.69128354483045,63.08081963802789,49.52176513417932,22433.33333333333
70.63103501864899,63.028258392043114,49.49316203895565,22466.666666666664
70.54849698356563,63.11940919492407,49.34293738298314,22500.0
70.64352681469937,62.7448123620309,49.39158550837554,22533.333333333336
70.5748031496063,63.188847717564705,49.50573825330657,22566.66666666667
70.71073352673021,62.95985288023207,49.575761500207214,22600.0
70.4896912556983,63.065452755905504,49.33539680895152,22633.33333333333
70.47497927890592,63.06856092001657,49.31949336924989,22666.66666666667
70.57488136830578,62.8222871147729,49.39216248631172,22700.0
70.61429615705931,63.193086883876354,49.4313387635756,22733.333333333336
70.60298795432028,62.8601971111227,49.32739740313918,22766.666666666664
70.5794414395673,63.18616080715623,49.308352402746,22800.0
70.83620509607351,63.15544068504594,49.64776524644945,22833.33333333333
70.87842000835421,63.1531954887218,49.64350981620719,22866.66666666667
70.58880278760141,63.19284376950281,49.30268358643645,22900.0
70.83400236735112,63.2726828264114,49.678194637435034,22933.33333333333
70.78812636165577,63.4484126984127,49.487654320987644,22966.666666666664
70.9408155806182,63.18311403508772,49.73156850459482,23000.0
70.74981121266569,63.41512381845168,49.68999817722574,23033.333333333336
70.78277738718329,63.39220894200975,49.65963596594016,23066.66666666667
70.99192771398069,63.33169283649715,49.88690987683254,23100.0
70.6403071922835,63.24766722583351,49.42613755504297,23133.33333333333
70.81433258415355,63.227673150946806,49.8341470975742,23166.66666666667
70.58464218847514,63.06914395672978,49.30538797586853,23200.0
70.86353922060104,62.997651776997955,49.4909896836495,23233.333333333336
70.74892024186583,62.89443237442086,49.40483731644112,23266.666666666664
70.48252964426878,62.74205533596838,48.9368906455863,23300.0
70.73708087813526,62.88434061636335,49.42321531000678,23333.33333333333
70.47682119205298,62.89762368523568,49.012128295026606,23366.66666666667
70.65927669701986,62.81265521523178,49.23292632450332,23400.0
70.52850279184521,62.90889494870795,49.02451629658486,23433.33333333333
70.45009830298014,62.8788545115894,48.90826779801324,23466.666666666664
70.78682352941176,62.592078431372535,49.24616993464052,23500.0
70.53691728346969,62.85734320218153,49.14434489027399,23533.333333333336
70.78173828125,62.92416221217105,49.50005139802632,23566.66666666667
70.46396571873781,62.97501623165822,49.16426438124918,23600.0
70.7320367510405,62.9570452582258,49.46472790095019,23633.33333333333
70.71090368670805,62.92652656828494,49.49353392084268,23666.66666666667
70.5648509279376,63.043792372326784,49.193990000785284,23700.0
70.8806891638743,63.09018231708927,49.62080156196407,23733.333333333336
70.75003973509935,63.22617218543046,49.35573509933774,23766.666666666664
70.94770860927152,63.18505960264901,49.62203973509934,23800.0
70.60586124401914,63.19567817765758,49.35242874973997,23833.33333333333
70.61706885791554,63.186394840857076,49.35136259621385,23866.66666666667
71.00362886382622,63.13557330827067,49.71752297410193,23900.0
70.79227825539945,63.300665758020536,49.50359089955966,23933.33333333333
70.97425856307434,63.17622180451127,49.83983395989975,23966.666666666664
70.68851817042606,63.18768274853801,49.42541248955722,24000.0
70.83752631578948,63.18594736842106,49.697842105263156,24033.333333333336
70.85718421052631,63.18955263157895,49.72571052631579,24066.66666666667
70.71326315789473,63.21057894736842,49.50178947368421,24100.0
70.82702309132516,63.12297170792594,49.59135115456626,24133.33333333333
70.45876949369794,62.859351634266176,49.10988570818201,24166.66666666667
70.02639344262296,62.08338797814208,48.62855191256831,24200.0
69.61865013774104,61.87049586776861,48.0339393939394,24233.333333333336
69.62247933884298,61.87289256198347,48.01578512396694,24266.666666666664
69.8334435261708,61.86013774104683,48.20628099173553,24300.0
69.59854075579938,61.848227463867,47.888161742181616,24333.33333333333
69.77172888124687,61.69909590104832,48.17213933107771,24366.66666666667
69.58330780584254,61.819460302431146,47.98462780918433,24400.0
70.01787878787879,61.87534435261709,48.41628099173553,24433.33333333333
69.95135614842755,61.70522491541405,48.24926507293805,24466.666666666664
69.58760885240446,61.75736313716789,47.872954684120025,24500.0
71.04490977826634,63.18972035284339,49.87090114486418,24533.333333333336
70.68413251508217,63.172846889952154,49.41468171416684,24566.66666666667
70.85875984251967,63.07363758806465,49.66934314131786,24600.0
70.65470886862826,63.15343970161624,49.43379610443432,24633.33333333333
70.67747617074181,63.15248135101533,49.44327600497306,24666.66666666667
70.78461657072368,63.07123766447368,49.614951685855246,24700.0
70.40913385826772,62.83165354330709,48.93629921259843,24733.333333333336
70.57683660130719,62.67712418300653,49.14813071895424,24766.666666666664
70.38983006535949,62.72062745098039,48.907973856209146,24800.0
70.75869453044375,63.04520123839009,49.55694014447886,24833.33333333333
70.75637254901959,63.05356037151703,49.5500773993808,24866.66666666667
70.60023829258185,63.11686697057604,49.3773570244509,24900.0
70.7780701754386,63.010732714138285,49.669453044375636,24933.33333333333
70.46976264189887,62.96682146542828,49.31336429308566,24966.666666666664
70.87276367796963,63.01245579363428,49.8815009361348,25000.0
70.80436150136298,63.2315737051793,49.72803522751101,25033.333333333336
70.70559210526315,63.172801796157046,49.68674289891396,25066.66666666667
70.84725996675549,62.95862905991926,49.709664652647675,25100.0
70.67954966887417,63.11287417218543,49.43062251655629,25133.33333333333
70.75706800712784,63.04986834756243,49.57599936168515,25166.66666666667
70.84032788624788,63.339611629881155,49.543877334465186,25200.0
70.81841397849462,62.931263440860214,49.51166666666666,25233.333333333336
70.82349462365592,62.9344623655914,49.51588709677418,25266.666666666664
70.44720867208672,62.851246612466134,48.96772357723577,25300.0
70.64427210884355,62.895292517006816,49.21684353741498,25333.33333333333
70.40666666666667,62.86878048780488,48.94569105691057,25366.66666666667
70.94129801324503,63.14768211920529,49.81409271523179,25400.0
70.83444303529909,63.40934791798774,49.688570069752686,25433.33333333333
70.67863507008164,63.236548844384146,49.45873560467032,25466.666666666664
70.71691369704615,62.99918532534426,49.52315252811942,25500.0
70.5746609902239,63.04517502365185,49.32807736781247,25533.333333333336
70.91011382623225,63.131396198830394,49.79699248120301,25566.66666666667
70.68682121971595,63.2047305764411,49.4641290726817,25600.0
70.9387974418117,63.19388236527575,49.80014153910672,25633.33333333333
70.84630847953215,63.15040204678362,49.804902882205496,25666.66666666667
70.65637086092715,63.159231788079474,49.37544370860928,25700.0
70.92558712518348,63.21474627804572,49.7118892849654,25733.333333333336
70.58017975402082,63.04223168296016,49.20868811100599,25766.666666666664
70.87562906269659,63.23429964353114,49.76470434053261,25800.0
70.77573684210526,63.32131578947369,49.54778947368422,25833.33333333333
70.76810526315789,63.32652631578948,49.55678947368421,25866.66666666667
71.03536842105264,63.280368421052636,49.977315789473685,25900.0
70.64445033112581,63.149668874172185,49.40415894039735,25933.33333333333
70.70684150813963,63.063349251998616,49.52531595472415,25966.666666666664
70.532753530679,63.1291523710737,49.331418388786936,26000.0
70.68659602649007,63.02188079470199,49.53915231788079,26033.333333333336
70.68196026490065,63.023231788079464,49.55562913907285,26066.66666666667
70.5517880794702,63.06694039735099,49.284900662251644,26100.0
70.80921347721694,63.07516952059312,49.58296614865043,26133.33333333333
70.54585829916955,63.059077052454526,49.23906759171661,26166.66666666667
70.75104913678621,62.9259229747676,49.32475431606906,26200.0
70.5982602754126,63.1049616314517,49.23880479344057,26233.333333333336
70.45691699604744,62.86869565217391,49.00798418972333,26266.666666666664
70.57525691699605,62.83934123847168,49.2036627140975,26300.0
70.47082442509256,62.97139802888878,49.06346143818115,26333.33333333333
70.73725490196078,62.89165043500844,49.45503181405012,26366.66666666667
70.37034354304636,62.89701469370861,49.19989134933775,26400.0
70.80412661796746,63.1613481994105,49.840266564142,26433.33333333333
70.81509675765732,63.151762142765605,49.83531974881456,26466.666666666664
70.57072099673205,63.24828941993464,49.6039879493464,26500.0
70.5832391036184,63.06329666940789,49.64836040296052,26533.333333333336
70.44845627849149,63.16266058847907,49.3593814753419,26566.66666666667
70.7127366340753,63.14042022051175,49.65942895776992,26600.0
70.63465956558062,63.20295530492898,49.4110275689223,26633.33333333333
70.65366541353383,63.19658521303258,49.41940789473684,26666.66666666667
70.72287921791234,62.969673078944595,49.48820035740565,26700.0
70.65157615894041,63.18688741721854,49.37780132450332,26733.333333333336
70.89269238834137,63.19941287481653,49.8037062277207,26766.666666666664
70.6875048058439,63.33807509932078,49.576034858387786,26800.0
70.89278371710526,63.038317228618425,49.695492393092096,26833.33333333333
70.89900287828947,63.039807771381575,49.720497532894726,26866.66666666667
70.48011936235375,63.0330078789624,49.183859906290074,26900.0
70.66642331960159,62.942326745580644,49.38580069875372,26933.33333333333
70.42887312926943,63.003910934974186,49.08257287375503,26966.666666666664
70.55714507450331,62.91085471854304,49.3243480960265,27000.0
70.38762580174169,63.011602440423424,49.11753663242426,27033.333333333336
70.35839808103458,63.0223184022527,49.09542681337019,27066.66666666667
70.76776960784314,63.22324346405229,49.83417585784314,27100.0
70.37315534233718,62.96250717004745,49.20667987693592,27133.33333333333
70.47115958966367,62.909362420464866,49.43332034800675,27166.66666666667
70.30642773665757,62.91642643812492,49.21376444617582,27200.0
70.62737358101134,63.055572755417955,49.55526315789474,27233.333333333336
70.68594591794447,63.10997720679652,49.657609821798594,27266.666666666664
70.43544891640866,63.10100619195046,49.3077399380805,27300.0
70.68326191403712,62.84539670172705,49.54847422412674,27333.33333333333
70.58354218880534,63.17891081871346,49.50851086048454,27366.66666666667
70.7719820384294,63.09179197994987,49.81902673350042,27400.0
70.64022855944644,63.23002725938353,49.517010903753395,27433.33333333333
70.6714210526316,63.30971052631578,49.56823684210526,27466.666666666664
70.88194736842105,63.25128947368422,49.805368421052634,27500.0
70.59826059203702,63.21120242559642,49.46240591505093,27533.333333333336
70.88257666427296,63.10580068618846,49.783744248517245,27566.66666666667
70.7459146859083,63.32170522071307,49.58146752971138,27600.0
70.99861495844875,63.39058171745153,49.80545493287875,27633.33333333333
70.97816744482174,63.32393357385399,49.74132533955857,27666.66666666667
70.72007640067912,63.40457873514431,49.43574915110357,27700.0
70.86001902346227,63.316291481716355,49.59744240118369,27733.333333333336
70.62726981414228,63.25862529374066,49.285649433881645,27766.666666666664
70.9598376415296,63.14115573595385,49.64820551164282,27800.0
70.83101655348048,63.3213868845501,49.57419885398981,27833.33333333333
70.80205030648911,63.400338194884796,49.6429930247305,27866.66666666667
70.78667549668874,63.107576158940404,49.6686357615894,27900.0
70.63581456953642,63.17925827814569,49.395947019867535,27933.33333333333
70.71057563587685,62.87491298527443,49.354564926372156,27966.666666666664
70.67860847362961,63.23564456501502,49.42953270033778,28000.0
70.79859602649006,63.116397350993395,49.60749668874172,28033.333333333336
70.69541333333333,62.94130666666667,49.41221333333333,28066.66666666667
70.48091069208455,63.10176647326978,49.38113862411935,28100.0
70.6874613003096,63.0545665634675,49.63854489164086,28133.33333333333
70.29092810457516,62.73903267973856,48.999895424836595,28166.66666666667
70.51802371541503,62.74582345191041,49.30371541501977,28200.0
70.36546383688794,62.9343484382333,49.166996923397825,28233.333333333336
70.37528466350811,63.00337669816507,49.22830667748607,28266.666666666664
70.64820467715231,62.802333402317885,49.540174875827816,28300.0
70.36064035041977,62.912290764978884,49.112061323460395,28333.33333333333
70.64507092927632,62.99748149671052,49.66467927631579,28366.66666666667
70.36027532982219,62.962220368149346,49.17215935756375,28400.0
70.80052527563969,63.02277928021635,49.75418660287082,28433.33333333333
70.79353026835864,63.07338256708965,49.83297794882464,28466.666666666664
70.43444887118194,62.88892430278885,49.01126162018592,28500.0
70.86344370860927,63.0478940397351,49.69475496688742,28533.333333333336
70.79147368421053,63.3064210526316,49.52278947368421,28566.66666666667
70.90005766408052,63.242687146152235,49.76334137135668,28600.0
70.59730054302422,63.2203425229741,49.48757309941521,28633.33333333333
70.59568191311612,63.22008145363408,49.473005430242274,28666.66666666667
70.9115,63.30813157894738,49.79484210526316,28700.0
70.74073684210526,63.33805263157896,49.62339473684211,28733.333333333336
70.5771655629139,63.0753642384106,49.41462251655629,28766.666666666664
70.61473365874363,63.31488752122241,49.39784061969439,28800.0
70.83052631578948,63.23265789473685,49.798631578947365,28833.33333333333
70.87776315789475,63.22105263157895,49.814710526315785,28866.66666666667
70.58620780037744,63.297834975885934,49.4209215768505,28900.0
70.6404282765738,63.03341073271414,49.49793601651186,28933.33333333333
70.52043617903027,63.16724513054289,49.31006527144633,28966.666666666664
70.60105855973302,62.87633623611618,49.38642644834959,29000.0
70.40027115815822,62.95359023830631,49.15985294884496,29033.333333333336
70.40061010585598,62.94756739844606,49.16029618814204,29066.66666666667
70.58340475262952,62.883833268406704,49.305960264900655,29100.0
70.426213693487,62.941831360483924,49.15664598216614,29133.33333333333
70.64968989803427,62.98215599705666,49.4617365710081,29166.66666666667
70.52055082518659,63.0187900767371,49.198912015137175,29200.0
70.8093866973798,62.926157631599615,49.630761982043296,29233.333333333336
70.82828573672225,62.91867130853598,49.69135931733111,29266.666666666664
70.5248344370861,63.03779039209503,49.31401766004414,29300.0
70.83865861059074,63.045750771747436,49.591857734624405,29333.33333333333
70.67145402803266,63.2543950636985,49.367775738716446,29366.66666666667
70.87587435836059,63.05425676214792,49.5922497938775,29400.0
70.6438940397351,63.20132450331126,49.37748344370861,29433.33333333333
70.67830463576159,63.196052980132464,49.376635761589405,29466.666666666664
70.8655894039735,63.11700662251656,49.725086092715216,29500.0
70.65747169408245,63.2107722708823,49.493858149967956,29533.333333333336
70.88725827814571,63.08773509933774,49.88545695364239,29566.66666666667
70.68174834437086,63.19888741721854,49.5249536423841,29600.0
70.81523178807947,63.20471523178808,49.659231788079474,29633.33333333333
70.82135099337748,63.20707284768211,49.63562913907285,29666.66666666667
70.64185430463576,63.2289536423841,49.39401324503312,29700.0
70.81376171352075,62.91571619812584,49.45775100401607,29733.333333333336
70.80445466074825,63.36604311984781,49.65345592897907,29766.666666666664
70.82479470198675,63.058145695364225,49.60156291390728,29800.0
70.62230463576158,63.15255629139072,49.42548344370861,29833.33333333333
70.63981456953644,63.13954966887417,49.40654304635761,29866.66666666667
70.69709333333333,62.93581333333334,49.40752,29900.0
70.57333333333334,63.03357429718875,49.288165997322615,29933.33333333333
70.74469333333333,62.95133333333333,49.48704,29966.666666666664
70.57827956989247,63.01704301075269,49.25612903225807,30000.0
70.87337107455673,63.17074343089086,49.65952787865841,30033.333333333336
70.91361472379585,63.21614936567462,49.769727918295686,30066.66666666667
70.6592172739541,63.098299595141704,49.33198380566802,30100.0
70.74661290322581,62.983225806451614,49.49733870967742,30133.33333333333
70.58583333333333,63.03784946236559,49.182446236559144,30166.66666666667
70.95986595388175,63.08335328067236,49.71802441554296,30200.0
70.77023325088433,63.22160163834144,49.51506689007686,30233.333333333336
70.63255689424362,63.072423025435064,49.32655957161982,30266.666666666664
70.84582781456953,63.08768211920529,49.66654304635761,30300.0
70.5801388313303,63.15535640281807,49.399062370493155,30333.33333333333
70.72347781217749,63.01746646026832,49.62089783281733,30366.66666666667
70.38078740157479,62.77619422572179,49.03496062992126,30400.0
70.79302217157066,63.003418980522184,49.6901937422296,30433.33333333333
70.77484520123839,62.95430856553147,49.65018059855521,30466.666666666664
70.53624871001031,63.00619195046439,49.35977812177504,30500.0
70.63584498355263,63.03325452302632,49.6142578125,30533.333333333336
70.44496505510037,62.94670575609246,49.201502499803674,30566.66666666667
70.73871437486999,63.07824526731849,49.66288745579363,30600.0
70.4596015936255,62.878353253652065,49.14037184594954,30633.33333333333
70.48933333333333,62.953813333333336,49.1832,30666.66666666667
70.90464,62.87930666666666,49.6412,30700.0
70.68299688821509,63.1729301311205,49.44003829889093,30733.333333333336
70.79327956989248,62.903091397849465,49.51056451612904,30766.666666666664
70.646342780027,63.05460188933874,49.32923076923078,30800.0
70.76758064516129,62.960080645161284,49.41357526881721,30833.33333333333
70.91862616296217,63.202187843526275,49.660187146419275,30866.66666666667
70.71496367000027,63.24144033032147,49.421320749658136,30900.0
70.88098087715099,63.161307481581964,49.718848905556,30933.33333333333
70.67874145588978,63.23396898853692,49.43189978456874,30966.666666666664
70.85618543046357,63.14460927152317,49.65096688741722,31000.0
70.75451474773264,63.24037873347695,49.495864251708824,31033.333333333336
70.75206787414558,63.244288411925844,49.49360355328599,31066.66666666667
70.88356073299822,63.143221894199314,49.82020798425489,31100.0
70.73340397350994,63.108662251655616,49.52235761589405,31133.33333333333
70.78409030544489,62.84637450199204,49.606427622841956,31166.66666666667
70.558940397351,63.12307284768212,49.488927152317885,31200.0
70.62914666666667,62.85632,49.50776,31233.333333333336
70.73295364238409,63.03025165562914,49.67867549668874,31266.666666666664
70.45238911902061,63.077227513785935,49.31323711775414,31300.0
70.63578666666666,62.88626666666666,49.51170666666667,31333.33333333333
70.47005376344086,62.97948924731183,49.2775,31366.66666666667
70.77581850581132,62.97904199579776,49.69751855102528,31400.0
70.49072580645161,62.96618279569893,49.20198924731183,31433.33333333333
70.46553763440859,62.97013440860215,49.16505376344086,31466.666666666664
70.75117496261483,63.11955244605854,49.76153599658193,31500.0
70.64801858577229,63.136135441145065,49.520187994018364,31533.333333333336
70.86418500320444,63.11223563341167,49.71007797479171,31566.66666666667
70.52417487751036,62.99545038496744,49.17853873902978,31600.0
70.98817599270718,63.193098640641324,49.84068423733813,31633.33333333333
70.76681203898131,62.943035589296294,49.551230280514716,31666.66666666667
70.25508771929825,62.774466936572196,48.84780026990554,31700.0
70.55742547425473,62.779349593495944,49.18116531165312,31733.333333333336
70.06261224489796,62.503945578231296,48.583999999999996,31766.666666666664
70.24127891156463,62.4207074829932,48.87072108843538,31800.0
70.04859863945579,62.503047619047614,48.597142857142856,31833.33333333333
70.36742547425474,62.85170731707317,48.98685636856369,31866.66666666667
70.5174898785425,62.725802968960856,49.22256410256411,31900.0
70.3727395411606,62.77179487179488,48.94477732793523,31933.33333333333
70.91396069215979,63.11266289254433,49.66195791497543,31966.666666666664
70.59959677419354,62.9779301075269,49.2166935483871,32000.0
70.92675014076198,63.133576427058465,49.79124326353325,32033.33333333333
70.90476445826742,63.144676515537434,49.82510657693648,32066.66666666667
70.72029921977638,63.26787677293079,49.44668471995066,32100.0
71.0772230475382,63.277138157894726,49.96752971137522,32133.33333333333
70.63420054200543,63.15287262872629,49.40959349593496,32166.666666666664
70.79789473684211,62.96402159244265,49.65211875843455,32200.000000000004
70.60747638326586,63.06375168690958,49.35738191632929,32233.333333333336
70.60170040485829,63.0412415654521,49.331794871794884,32266.666666666664
70.83724696356276,62.984021592442645,49.57724696356276,32300.0
70.61629032258064,63.115268817204296,49.38155913978497,32333.333333333336
70.80388471177945,63.13865392648287,49.790256892230566,32366.66666666667
70.60833159975036,63.208472019970884,49.56602350738506,32400.0
70.66384210251864,62.920581947124155,49.472493090681546,32433.33333333333
70.72274428709787,62.992408973117286,49.54233960683716,32466.66666666667
70.52823695051364,62.967878187412005,49.1536997444856,32500.0
70.62212546279397,62.92616154768734,49.39138029931689,32533.33333333333
70.5104813057308,62.9788809511394,49.1287740522501,32566.66666666667
70.88948511896972,62.930502840091094,49.54817684475042,32600.0
70.53968295353809,62.93072430515722,49.20482870104814,32633.33333333333
70.55678677582522,62.9005318871565,49.254393283621006,32666.666666666664
70.77162747040727,62.800776972414866,49.58961255670857,32700.000000000004
70.61682146542827,63.05998452012384,49.5859907120743,32733.333333333336
70.7962339411521,63.02906133443846,49.75859925404061,32766.666666666664
70.50190172697368,63.05918482730264,49.3994140625,32800.0
70.65226573499505,62.85964958022632,49.56390467747825,32833.333333333336
70.68037232100956,62.83884340616363,49.63026020754028,32866.666666666664
70.50055187637969,62.96594134342479,49.32127089246295,32900.0
70.66666666666667,62.98312835067802,49.581546305056236,32933.33333333333
70.45309050772627,63.0255439924314,49.32245348470514,32966.66666666667
70.68157333333333,62.96933333333333,49.3528,33000.0
70.62286479250335,63.04374832663989,49.17030789825971,33033.33333333333
70.61796519410976,63.04688085676037,49.13659973226238,33066.66666666667
70.9282998661312,62.995903614457816,49.66412315930389,33100.0
70.58974564926372,63.00382864792503,49.33475234270416,33133.333333333336
70.92289688555545,63.1271576371712,49.75592435969041,33166.666666666664
70.60360215053764,62.992741935483856,49.250725806451605,33200.0
70.83782258064517,62.936209677419356,49.57247311827958,33233.333333333336
70.81720430107526,62.93470430107528,49.67997311827957,33266.666666666664
70.5741935483871,63.06532258064516,49.27682795698925,33300.0
70.85015883271416,62.987481828460645,49.55901039142842,33333.333333333336
70.50233062330624,62.98265582655826,49.053929539295396,33366.666666666664
70.90010752688173,63.0461559139785,49.582876344086024,33400.0
70.91663115278074,63.49256871936928,49.68650117195825,33433.33333333333
70.91575218410398,63.49041125079906,49.65163541444704,33466.66666666667
70.92865380582931,63.22475885929965,49.83059865799958,33500.0
70.6087339411521,63.108474927476166,49.38051699129714,33533.33333333333
71.00340649053462,63.09174121073435,49.79017578531308,33566.66666666667
70.55430201816611,62.92662879878544,49.18804805905295,33600.0
70.80731225296442,63.04327023091325,49.70784793010194,33633.333333333336
70.77621218400331,63.03926647326978,49.71596560298386,33666.666666666664
70.49669762641898,63.02561919504643,49.36891124871001,33700.0
70.82216282894737,62.955078125,49.81774259868421,33733.333333333336
70.63031045751634,63.2288347630719,49.669526143790854,33766.666666666664
70.85988408521303,63.13985484544695,49.815998329156216,33800.0
70.54001976284584,63.209668192219674,49.59860619929271,33833.333333333336
70.56795634920634,63.2312291144528,49.5500208855472,33866.666666666664
70.79432957393483,63.20674081035923,49.80130012531328,33900.0
70.7804375396322,63.401262946522934,49.73737053477066,33933.33333333333
70.97915345592898,63.30577573451701,49.96356478545762,33966.66666666667
70.6874011314583,63.32391345148403,49.535404992358636,34000.0
71.041665549508,63.288280558758075,49.91902834008097,34033.33333333333
71.07260637584794,63.27487465479796,49.94262273105075,34066.66666666667
70.71322090248546,63.3411266321688,49.54977612140386,34100.0
70.64936054421769,62.87613605442178,49.43983673469388,34133.333333333336
70.51733333333334,62.97795918367347,49.14838095238096,34166.666666666664
70.82836707152498,63.04742240215925,49.59314439946019,34200.0
70.81430141834464,63.24093090597098,49.55934793683138,34233.333333333336
70.80207523393302,63.25744697964984,49.587098158028795,34266.666666666664
70.83004048582997,63.05964912280702,49.57948717948718,34300.0
70.61048387096773,63.00774193548386,49.223225806451616,34333.333333333336
70.96053301874143,63.22087567364667,49.61214038662625,34366.666666666664
70.3560433604336,62.810216802168036,48.94346883468834,34400.0
70.83672438096758,63.1758823372962,49.64475119019122,34433.33333333333
70.83262852735444,63.173701428229464,49.699672863640004,34466.66666666667
70.66310617389445,63.136135441145065,49.358870967741936,34500.0
70.82138666666667,62.90514666666667,49.60210666666666,34533.33333333333
70.49535999999998,62.94525333333333,49.2788,34566.66666666667
70.65568169872806,62.89719331441186,49.630453064227886,34600.0
70.4087898856111,62.94775279428318,49.243776666753924,34633.333333333336
70.5317765758269,63.11951320990222,49.425057208238,34666.666666666664
70.78393488662367,63.079389432078216,49.732083420012465,34700.0
70.52870193440306,62.92115802423894,49.27832892704762,34733.333333333336
70.68741200396309,62.90809302810659,49.53788392344997,34766.666666666664
70.43293807641633,62.76853754940712,49.07133069828722,34800.0
70.77886553412036,62.98966049786666,49.47158600109939,34833.333333333336
70.7658653595453,62.962272513949,49.500312874797935,34866.666666666664
70.61376537369917,63.05261221486386,49.26059077052454,34900.0
70.82011883883466,62.98617909588253,49.48561631285502,34933.33333333333
70.65381214894944,63.19703037237362,49.37968067401707,34966.66666666667
70.98203900982965,63.261257783953475,49.984766610056106,35000.0
70.66540081118086,63.29522849983208,49.66824252757756,35033.33333333333
70.65607481464258,63.28357746260559,49.658193185047395,35066.66666666667
70.76484813813188,62.96655918452257,49.71083836072393,35100.0
70.63806866620166,63.2299723578496,49.719987599783,35133.333333333336
70.59945554014081,62.79629871999583,49.64942543779284,35166.666666666664
70.56683375104426,63.10497598162071,49.56223893065998,35200.0
70.74078425229742,63.101268796992464,49.72835735171261,35233.333333333336
70.73031537176273,63.11272974101921,49.71770572263994,35266.666666666664
70.51224415204679,63.17209690893901,49.4641812865497,35300.0
70.8842105263158,63.233342105263155,49.815131578947366,35333.333333333336
70.6905,63.268368421052635,49.50771052631578,35366.666666666664
70.83265789473684,63.249421052631575,49.71873684210527,35400.0
70.57894736842105,63.234614174879425,49.549695953029996,35433.33333333333
70.62043929544978,63.21068358146361,49.60041413294192,35466.66666666667
70.76844177372566,63.04607853294654,49.72917530045586,35500.0
70.58144372789681,63.060406698564606,49.36309028500104,35533.33333333333
70.384,62.60481045751634,49.112,35566.66666666667
70.47595738554564,62.87498364002828,49.140407821375284,35600.0
70.51301712779973,62.6964953886693,49.19009222661397,35633.333333333336
70.51570487483531,62.704822134387356,49.18750988142293,35666.666666666664
70.48053817763004,62.91186556029631,49.05075517629506,35700.0
70.47296587926509,62.675170603674545,49.15897637795275,35733.333333333336
70.30514435695538,62.67716535433071,48.89666666666667,35766.666666666664
70.47058671357615,62.732848716887425,49.28973509933775,35800.0
70.44187733112308,62.97236324077912,49.3165406133444,35833.333333333336
70.40784293410692,62.98699751346872,49.30133651056776,35866.666666666664
70.36667965199325,62.66674457862614,49.24791585508376,35900.0
70.28924430018586,62.744077690233745,49.11315865246186,35933.33333333333
70.6472528335471,62.680810407559605,49.50815380991022,35966.66666666667
70.37568929579696,62.801087042558244,49.16437561014221,36000.0
70.56370544312814,62.77570512651381,49.41217909817684,36033.33333333333
70.58359937732513,62.78003218912429,49.42985673201235,36066.66666666667
70.29863453815261,62.68880856760374,49.06618473895582,36100.0
70.48170666666667,62.68842666666666,49.34832,36133.333333333336
70.35978494623656,62.77518817204301,49.08629032258065,36166.66666666666
70.30116059379218,62.50377867746289,49.071848852901496,36200.0
70.20796747967479,62.63639566395664,48.82531165311653,36233.333333333336
70.18336043360435,62.65243902439025,48.79268292682927,36266.66666666666
70.35044534412954,62.47497975708503,49.022887989203774,36300.0
70.11991902834008,62.544075573549264,48.74739541160594,36333.333333333336
70.27918699186992,62.59162601626018,49.07460704607046,36366.66666666666
70.18215942300989,62.74046169933239,48.92047617770866,36400.0
70.65347410027043,62.89398273351361,49.55856043270232,36433.33333333333
70.68590076971084,62.904254212606624,49.59041501976285,36466.66666666667
70.3261262204539,62.79119440881607,49.01955343821166,36500.0
70.49938486506295,62.7148915006675,49.20639740334529,36533.33333333333
70.2104347826087,62.61994729907774,48.8305928853755,36566.66666666667
70.37699000129851,62.68404103363199,49.243500844046224,36600.0
70.2678094161184,62.84567742598684,49.081825657894726,36633.333333333336
70.24622224506578,62.85729337993421,49.07475842927632,36666.66666666666
70.47781217750257,62.848297213622295,49.434262125903,36700.0
70.25575657894737,62.84118009868421,49.19197162828947,36733.333333333336
70.41190378289474,62.795590049342096,49.43909333881579,36766.66666666666
70.27379342625339,63.00527876014146,49.22755876846266,36800.0
70.39111957031861,62.69653751890286,49.33328987850029,36833.333333333336
70.3512271133619,62.678535255161655,49.37792494481236,36866.66666666666
70.17680033373313,62.72998904938208,49.02239662095218,36900.0
70.46832142670908,62.6644678521145,49.4016530218491,36933.33333333333
70.17750430202848,62.68005944621161,49.09195911769307,36966.66666666667
70.5939157278172,62.77470251444552,49.50080472810743,37000.0
70.15658602150539,62.43177419354839,48.79927419354839,37033.33333333333
70.15,62.436209677419356,48.781397849462365,37066.66666666667
70.32120967741936,62.4141935483871,49.03502688172043,37100.0
69.84019047619049,62.24810884353742,48.48715646258504,37133.333333333336
70.22005376344086,62.42354838709678,49.00690860215054,37166.66666666666
69.82409214092141,62.12029810298103,48.42777777777778,37200.0
69.91514905149053,62.11070460704607,48.589132791327906,37233.333333333336
69.93352303523035,62.0959620596206,48.641869918699186,37266.66666666666
70.04272604588394,62.45832658569501,48.633981106612694,37300.0
70.18924731182797,62.34333333333333,48.862069892473116,37333.333333333336
70.24179384203482,62.651860776439094,48.853172690763046,37366.66666666666
70.31997300944671,62.409041835357634,49.127962213225366,37400.0
70.00901484480433,62.46385964912281,48.87700404858301,37433.33333333333
69.99411605937921,62.44947368421053,48.86858299595142,37466.66666666667
70.4047925033467,62.57769745649264,49.310040160642565,37500.0
70.2802141900937,62.64907630522088,49.0584203480589,37533.33333333333
70.40123159303882,62.590896921017396,49.14021419009371,37566.66666666667
70.09562076276733,62.65808967882104,48.97029029133839,37600.0
70.21563433320348,62.516062848980646,49.10079210492144,37633.333333333336
70.1930398649526,62.53429424750033,49.10053239838982,37666.66666666666
69.95325490196079,62.42101960784314,48.61265359477125,37700.0
70.13874015748031,62.36750656167979,48.78763779527559,37733.333333333336
69.98379431242695,62.54444877288663,48.801402415270736,37766.66666666666
70.07132733785141,62.384621331203135,48.88484036385188,37800.0
69.99272308457451,62.56032248776275,48.889694526607855,37833.333333333336
70.01151742009789,62.54655393555481,48.91665576001886,37866.66666666666
70.20877808076872,62.41243994286456,49.17670432411375,37900.0
69.99517651353185,62.49853991760964,48.91787036554206,37933.33333333333
70.25366357069143,62.58067595459236,49.39829721362229,37966.66666666667
70.02620213072272,62.62979347171689,49.053189540088475,38000.0
70.31509513297593,62.64509092820351,49.340849364028166,38033.33333333333
70.31822243246084,62.6656154735625,49.345868811100594,38066.66666666667
70.21569351732144,62.765256853381175,49.15503548719031,38100.0
70.36672847682121,62.74445033112583,49.32341721854304,38133.333333333336
70.21582329317269,62.65646586345381,48.95954484605086,38166.66666666666
70.16779569892472,62.41357526881721,48.891693548387096,38200.0
70.02860998650472,62.45975708502024,48.65600539811066,38233.333333333336
70.01452091767881,62.46188933873145,48.669149797570846,38266.66666666666
70.35230715607153,62.552403678580035,49.21663940799528,38300.0
70.11416467812424,62.593372121082105,48.95884387484247,38333.333333333336
70.35574297188755,62.58085676037483,49.20872824631861,38366.66666666666
70.09611780455154,62.52688085676037,48.82214190093708,38400.0
70.26479250334671,62.47638554216867,49.07459170013386,38433.33333333333
69.99927419354839,62.230376344086025,48.78118279569893,38466.66666666667
70.07472556894244,62.489049531459166,48.864631860776434,38500.0
70.08611941892758,62.379993591113006,48.993831446272154,38533.33333333333
69.88143049932523,62.36782726045884,48.65686909581647,38566.66666666667
69.9839247311828,62.29166666666666,48.80766129032258,38600.0
70.12691390728476,62.70333774834437,48.91978807947019,38633.333333333336
70.1215894039735,62.707099337748346,48.91056953642384,38666.66666666666
70.15010168430933,62.513818636908795,49.074542420608026,38700.0
70.05609507106772,62.6580373269115,48.85946129885088,38733.333333333336
70.0545406824147,62.36695538057743,48.82398950131234,38766.66666666666
70.02026455026456,62.53650793650794,48.686216931216926,38800.0
70.33435695538058,62.3734908136483,49.062283464566924,38833.333333333336
70.35910761154855,62.378241469816274,49.05713910761156,38866.66666666666
70.08365835143837,62.68094128733346,48.90953590032197,38900.0
70.16007874015749,62.43648293963255,48.91396325459319,38933.33333333333
70.18597883597884,62.55489417989418,48.80325396825396,38966.66666666667
70.26505928853756,62.46816864295126,49.04590250329381,39000.0
70.04679790026248,62.48372703412074,48.64383202099738,39033.33333333333
70.1103557312253,62.53206851119895,48.74297760210804,39066.66666666667
70.28884560446693,62.575172055577184,49.24365666796521,39100.0
70.16433264403321,62.732769677774,49.084050990759884,39133.333333333336
70.2970447347067,62.70706489019187,49.388739104258825,39166.66666666666
70.22712582781456,62.781006622516536,49.16098013245034,39200.0
70.49922165642067,62.80222157726709,49.47048890530593,39233.333333333336
70.39243027888445,62.616945551128815,49.31636122177954,39266.66666666666
70.08410256410258,62.46105263157895,48.836113360323886,39300.0
70.55650588519184,62.61168458589162,49.44290425503392,39333.333333333336
69.73943089430894,62.122601626016255,48.487804878048784,39366.66666666666
69.98970189701896,62.10728997289972,48.761165311653116,39400.0
69.87804081632653,62.21148299319728,48.612680272108854,39433.33333333333
69.8236462585034,62.24868027210885,48.56519727891157,39466.66666666667
70.2622311827957,62.45013440860215,49.049623655913976,39500.0
70.10148448043185,62.593306342780025,48.82998650472335,39533.33333333333
69.97135501355014,62.1940108401084,48.69620596205962,39566.66666666667
70.08075573549257,62.6195681511471,48.815897435897426,39600.0
70.30064777327935,62.51973009446694,49.10877192982456,39633.333333333336
70.25104838709677,62.4708064516129,49.04220430107528,39666.66666666666
70.27423416940789,62.852770353618425,49.236585115131575,39700.0
70.45432027950149,62.76028575898211,49.28555039891537,39733.333333333336
70.15683794466403,62.68582345191041,48.8698814229249,39766.66666666666
70.51899868247695,62.58202898550725,49.30474308300396,39800.0
70.26872200263504,62.61773386034256,48.93826086956522,39833.333333333336
70.3226455026455,62.67164021164022,48.999021164021165,39866.66666666666
70.37261638436134,62.41293810589113,49.068072866730574,39900.0
70.29936507936509,62.65957671957672,48.982910052910064,39933.33333333333
70.47510038066434,62.745815299577615,49.291938259373204,39966.66666666667
70.28609792981176,62.78051832924858,48.91244720237786,40000.0
70.41854304635761,62.643163225555114,49.24866900402545,40033.33333333333
70.40373977405531,62.654798078171645,49.234073496948454,40066.66666666667
70.1960160609063,62.73418678625437,49.02682901392293,40100.0
70.37828853395662,62.62734709777951,49.26199194909752,40133.333333333336
70.16120873963602,62.74891797465715,49.00445846587058,40166.66666666666
70.37983000469313,62.71557073577723,49.319705897689936,40200.0
70.27691054346684,62.817828235046775,49.089771891096404,40233.333333333336
70.35745758687104,62.859845386665256,49.171816047069996,40266.66666666666
70.74405298013245,62.90950993377482,49.68225165562914,40300.0
70.34025487454157,62.85886915912509,49.27487401387826,40333.333333333336
70.59463789788506,62.85307626575518,49.56181905575733,40366.66666666666
70.49994659260841,62.90707113864559,49.39889980773339,40400.0
70.59567934202094,62.92031617175819,49.61060670796838,40433.33333333333
70.57898953215125,62.946539201025416,49.61266289254433,40466.66666666667
70.19886317934417,62.73102394294447,49.07518030940825,40500.0
70.54626527004564,62.8657291364344,49.50745362919184,40533.33333333333
70.20203890076654,62.791573238775605,49.18344892318924,40566.66666666667
70.39233865731724,62.67658745617452,49.365900532398385,40600.0
70.14993412384717,62.61596837944664,48.95702239789196,40633.333333333336
70.15159420289855,62.63581027667984,48.92152832674572,40666.66666666666
70.33391304347826,62.59844532279315,49.21947299077734,40700.0
70.15048748353097,62.6407114624506,48.95515151515151,40733.333333333336
70.08371241830065,62.44776470588235,48.98896732026144,40766.66666666666
70.12580174166972,62.72318402252698,49.09018616050477,40800.0
70.36994837565834,62.614433957344744,49.45551963289357,40833.333333333336
70.35112374198259,62.63383219481671,49.46931219690254,40866.66666666666
70.13760699421512,62.737690757270364,49.0421432871764,40900.0
70.30811716357354,62.71677616941079,49.30942596131194,40933.33333333333
70.23062716023324,62.884884303844224,49.22606263686973,40966.66666666667
70.42481728714282,62.815229149626646,49.50937969974407,41000.0
70.19189530116682,62.77864501208872,49.15463050562389,41033.33333333333
70.18721749185325,62.77536003363818,49.155261221486384,41066.66666666667
70.4144591611479,62.75833070535057,49.45787343635026,41100.0
70.23954513073534,62.84301205772935,49.34819661750349,41133.333333333336
70.43761168926731,62.6838536739199,49.594581099547995,41166.66666666666
70.16892430278884,62.674687915006636,49.19739707835326,41200.0
70.47758330705352,62.719594239461784,49.65817828235048,41233.333333333336
70.48202459791864,62.71494270997582,49.7044833385893,41266.66666666666
70.14804358724044,62.82253766391388,49.32336877654942,41300.0
70.43547019867547,62.76699337748344,49.66002649006622,41333.333333333336
70.2248476821192,62.836370860927154,49.28113907284768,41366.66666666666
70.40456,62.62077333333333,49.34866666666667,41400.0
70.20586345381525,62.760589022757685,49.140696117804545,41433.33333333333
70.18961178045515,62.764899598393576,49.10029451137885,41466.66666666667
70.33263721552878,62.60002677376171,49.26037483266399,41500.0
70.32108523819696,62.8577227088229,49.30303353984191,41533.33333333333
70.18979353330735,62.578080768731326,49.31517984677314,41566.66666666667
70.0579145565511,62.71912738605376,49.105596675756395,41600.0
70.2662564530427,62.68240600719612,49.23460395265162,41633.333333333336
70.3198623350889,62.635448714606035,49.28502894091882,41666.66666666666
70.15380764163373,62.57849802371542,48.90073781291173,41700.0
70.47173970783533,62.62756972111554,49.311314741035865,41733.333333333336
70.26937583001327,62.614873837981406,49.03261620185923,41766.66666666666
70.31039787245138,62.55597851593055,49.39463941179539,41800.0
70.13782134849038,62.64911091411586,49.15974865724567,41833.333333333336
70.09868848201532,62.591403713803395,49.09505259057265,41866.66666666666
70.47253758015347,62.64840218648165,49.6249605802586,41900.0
70.33643644684834,62.863064281256506,49.359345745787394,41933.33333333333
70.41132606768525,62.58598842363248,49.4250143400949,41966.66666666667
70.23042152843477,62.76066961000736,49.27691054346682,42000.0
70.45407428735963,62.67172735125514,49.45184933120436,42033.33333333333
70.44580268565295,62.67696254220873,49.434677904876565,42066.66666666667
70.28384841795437,62.7943077893409,49.20997582255861,42100.0
70.45926626721328,62.734967938610325,49.502233785346355,42133.333333333336
70.21461665314243,62.703609664162514,49.18563987121431,42166.66666666666
70.70431269620707,62.91001492460501,49.84640522875817,42200.0
70.52733686067019,63.06995020230314,49.5519244734931,42233.333333333336
70.55534723849698,63.12610993932766,49.625706325026684,42266.66666666666
70.65869853917663,63.07861364997528,49.856912220399465,42300.0
70.5403828197946,63.060327834837636,49.648251893349936,42333.333333333336
70.44901960784314,62.76207430340557,49.55541795665634,42366.66666666666
70.27097523219814,62.827657378740966,49.24429824561403,42400.0
70.48364222813844,62.78545463854188,49.53967847634651,42433.33333333333
70.43708609271523,62.646756001655646,49.43832781456953,42466.66666666667
70.05924479166667,62.52911458333334,48.86830729166667,42500.0
70.44721464744838,62.589741592001026,49.30061031034929,42533.33333333333
70.22220490845345,62.65742111414102,49.04557849629918,42566.66666666667
70.35694329470199,62.622775248344354,49.333505794702,42600.0
70.27882822213013,62.90851636966432,49.237929962702026,42633.333333333336
70.29618213841691,62.9005905511811,49.20897223373394,42666.66666666666
70.66240016383371,62.708401597378646,49.72163628916649,42700.0
70.51203529657477,62.88878446115289,49.47465016708438,42733.333333333336
70.61634079680437,62.698307579102284,49.5515873015873,42766.66666666666
70.44544998812695,62.83828922719717,49.38336719347775,42800.0
70.59549879950397,62.82612595973721,49.65792459301865,42833.333333333336
70.61122397825915,62.82939764122318,49.69087886863143,42866.66666666666
70.47133774834437,62.95949668874172,49.46574834437086,42900.0
70.66463576158941,62.92797350993378,49.65544370860928,42933.33333333333
70.45176158940397,62.97735099337748,49.45078145695364,42966.66666666667
70.68908609271523,62.899337748344365,49.73517880794702,43000.0
70.45880794701986,62.90460927152318,49.38113907284768,43033.33333333333
70.46129801324503,62.89586754966886,49.41470198675496,43066.66666666667
70.4523797286184,62.813733552631575,49.64895148026316,43100.0
70.38650020721094,62.876010153336104,49.3862929962702,43133.333333333336
70.50656209150327,62.37764705882353,49.2926797385621,43166.66666666666
70.24296296296296,62.5034126984127,49.03944444444446,43200.0
70.44611111111111,62.44031746031746,49.281904761904755,43233.333333333336
70.45547619047619,62.43693121693122,49.3207671957672,43266.66666666666
70.17433862433863,62.5781216931217,48.96973544973545,43300.0
70.35860342555995,62.39420289855072,49.30276679841897,43333.333333333336
70.0774440052701,62.48824769433465,48.94661396574441,43366.66666666666
70.32346456692913,62.378582677165355,49.28897637795276,43400.0
70.22688637430255,62.60118892423216,49.20169995306878,43433.33333333333
70.22680815560308,62.59785159305418,49.20756635553006,43466.66666666667
70.41159071277126,62.59479622019214,49.5111902206633,43500.0
70.2181504070361,62.64764547286863,49.11787032432008,43533.33333333333
70.41708766327254,62.664816899196396,49.3690809622281,43566.66666666667
70.2906286134763,62.79175864606328,49.1717649532219,43600.0
70.70631381757737,62.76443893300968,49.71486240468589,43633.333333333336
70.66577315252812,62.69362976978872,49.734862819299906,43666.66666666666
70.39215324133926,62.859634310440356,49.290572808105324,43700.0
70.59931125827814,62.84161589403973,49.695708609271534,43733.333333333336
70.38421234607303,62.8661400569164,49.27115082847948,43766.66666666666
70.61870198675496,62.77014569536425,49.675231788079465,43800.0
70.39033112582781,62.833695364238395,49.41250331125828,43833.333333333336
70.36415894039735,62.841960264900656,49.34829139072848,43866.66666666666
70.52354966887417,62.77862251655629,49.69300662251656,43900.0
70.37184105960264,62.83827814569536,49.43814569536425,43933.33333333333
70.70648383005705,62.974688226590565,50.01207461424647,43966.66666666667
70.26462365591398,62.668575268817214,49.166397849462356,44000.0
70.37666666666667,62.61986666666667,49.33218666666666,44033.33333333333
70.40151999999998,62.61517333333333,49.39586666666666,44066.66666666667
70.20632292652161,62.67914958477872,49.13980868285504,44100.0
70.5319393022892,62.525681806330496,49.509099442039954,44133.33333333334
70.15068241469817,62.31464566929135,48.969186351706036,44166.66666666666
70.27186928104575,62.31511111111111,49.137673202614366,44200.0
70.21931216931218,62.51227513227514,49.00309523809525,44233.33333333334
70.2289947089947,62.51412698412699,48.97309523809525,44266.66666666666
70.33584656084656,62.489708994709,49.238201058201064,44300.0
70.26647745190792,62.699700409965324,49.18900452013035,44333.33333333334
70.37315534233718,62.594071022579136,49.39818532617198,44366.66666666666
70.33622841689203,62.81469731641357,49.39354066985646,44400.0
70.44894840447577,62.75603501864898,49.72855366763365,44433.33333333333
70.4724150435143,62.773751554082054,49.70156444260257,44466.66666666667
70.37520885547201,62.877558479532155,49.43705618212197,44500.0
70.5078059732665,62.880743525480355,49.66645781119466,44533.33333333333
70.28832497911445,62.90147243107769,49.34502923976609,44566.66666666667
70.57736114000416,62.78736738090285,49.787185354691076,44600.0
70.25310677818527,62.69860953536846,49.13057702962982,44633.33333333334
70.18840008409545,62.63505203405866,49.146799116997784,44666.66666666666
70.30814333952831,62.523754678951924,49.41433918802189,44700.0
70.18409019236834,62.68721749185325,49.24823925155052,44733.33333333334
70.40392095027856,62.597524440239674,49.520866183117846,44766.66666666666
70.18919980106274,62.6096903384551,49.105227338167154,44800.0
70.30023799668874,62.47938224337749,49.45353890728477,44833.33333333334
70.33790355960265,62.471362789735096,49.4987582781457,44866.66666666666
70.11881422924901,62.44540184453228,48.88745718050066,44900.0
70.30548556430446,62.37430446194225,49.2445406824147,44933.33333333333
70.07369934640522,62.37471895424837,48.89555555555553,44966.66666666667
70.25205228758169,62.405673202614366,49.01877124183007,45000.0
70.1833465085639,62.5298023715415,48.86998682476944,45033.33333333333
70.15267457180501,62.52205533596838,48.84729907773386,45066.66666666667
70.40241469816274,62.39640419947506,49.15241469816273,45100.0
70.11144007271783,62.58010647967797,48.98317101675106,45133.33333333334
70.23073156904682,62.522689205555686,49.276754193830996,45166.66666666666
70.21249744009829,62.75588777390947,49.22813843948392,45200.0
70.42391972148269,62.72337702232234,49.486739709195156,45233.33333333334
70.55097784898655,62.89199155667457,49.70679789425498,45266.66666666666
70.3852890114379,62.96318423202614,49.49438316993464,45300.0
70.60258874791747,63.02417019095221,49.87122901448162,45333.33333333334
70.45906636699475,63.10733937843912,49.615050763388346,45366.66666666666
70.61399157818595,63.04745666382495,49.8471673254282,45400.0
70.35924722163976,63.002830782134616,49.41502411407004,45433.33333333333
70.31644214703425,62.99412593984962,49.42097431077694,45466.66666666667
70.49195906432747,62.90048036758563,49.62155388471178,45500.0
70.41198364436991,63.02618473474523,49.50393164185364,45533.33333333333
70.71615789473684,62.98839473684211,49.886105263157894,45566.66666666667
70.34792409310128,62.94624135038793,49.5083875026211,45600.0
70.38376432250605,62.63294964785031,49.54656785451488,45633.33333333334
70.46302208385,62.68386058415345,49.53951083084879,45666.66666666666
70.29072847682119,62.823894039735094,49.323099337748346,45700.0
70.47531125827814,62.80731125827814,49.54826490066226,45733.33333333334
70.32371177541489,62.791324767156546,49.34125748660985,45766.66666666666
70.4289656259855,62.69373488909913,49.5145327446652,45800.0
70.19749641613761,62.76620417775957,49.30921052631579,45833.33333333334
70.20159225885726,62.76643456891254,49.29213598197829,45866.66666666666
70.18295719844357,62.416523994811925,49.09535667963684,45900.0
70.02666666666667,62.48739299610895,48.83086900129703,45933.33333333333
70.26216145833334,62.45539062500001,49.05291666666667,45966.66666666667
70.1638954248366,62.55976470588235,48.8957385620915,46000.0
70.52419947506561,62.47653543307087,49.328162729658786,46033.33333333333
70.53073490813648,62.485643044619415,49.301417322834645,46066.66666666667
70.11082352941176,62.571294117647064,48.90682352941175,46100.0
70.36910182119205,62.557377897350996,49.313043253311264,46133.33333333334
70.21461092715232,62.61558360927154,49.10130380794703,46166.66666666666
70.4839971550498,62.72447165210321,49.6399359886202,46200.0
70.28899105872789,62.759246088193464,49.37616846169478,46233.33333333334
70.25602011786222,62.78144686039423,49.35551717130664,46266.66666666666
70.26238513270702,62.56006468504543,49.24554648595925,46300.0
70.08370552903126,62.6150983110016,49.02443657271935,46333.33333333334
70.36165149006622,62.59765625,49.30587748344371,46366.66666666666
70.28409031652501,62.690879699640206,49.1577410439589,46400.0
70.37631093544138,62.5294071146245,49.30856389986825,46433.33333333333
70.38115942028986,62.52845849802372,49.3341765480896,46466.66666666667
70.23939153439154,62.65000000000001,49.07439153439154,46500.0
70.54962962962964,62.60185185185186,49.4447619047619,46533.33333333333
70.3737779880164,62.790497214338274,49.244638915168714,46566.66666666667
70.53948444632067,62.793963219967814,49.6216986359199,46600.0
70.39524023112847,62.86216722513917,49.33669296324636,46633.33333333334
70.39017440173082,62.86448906361309,49.312155352101534,46666.66666666666
70.49268874172184,62.74678145695364,49.491602649006616,46700.0
70.39113157894737,63.00139473684211,49.399921052631576,46733.33333333334
70.42093876151024,62.72042954011767,49.44180892324741,46766.66666666666
70.25380132450331,62.863099337748345,49.23748344370861,46800.0
70.5677894736842,62.976578947368424,49.61421052631579,46833.33333333334
70.57363157894737,62.979578947368424,49.615,46866.66666666666
70.40794736842106,62.99665789473686,49.39236842105264,46900.0
70.57439473684211,62.96315789473685,49.627078947368425,46933.33333333333
70.39981578947369,62.985815789473676,49.4051052631579,46966.66666666667
70.69188596491226,62.86810776942355,49.85964912280701,47000.0
70.06988702765874,62.61628359953253,49.26638098948188,47033.33333333333
70.0743539800026,62.6242825607064,49.20901181664718,47066.66666666667
70.35130502532138,62.545046097909356,49.46386183612518,47100.0
70.19823225739167,62.63367575741775,49.09005579600564,47133.33333333334
70.36872294936643,62.59521823017157,49.290582468582144,47166.66666666666
70.16832664128904,62.601736455128545,48.974135683370704,47200.0
70.44558823529411,62.74969040247678,49.58869969040248,47233.33333333334
70.45312177502579,62.74215686274511,49.618163054695565,47266.66666666666
70.20227038183694,62.78689370485036,49.23552631578947,47300.0
70.26331645240877,62.574470847941825,49.35945981041423,47333.33333333334
70.14640211501715,62.7130068319242,49.04853022013978,47366.66666666666
70.42835281390992,62.79974143162449,49.41278594232342,47400.0
70.40556196267563,62.97858565737052,49.39206332564479,47433.33333333333
70.42241560075487,62.964798699937106,49.41607255189768,47466.66666666667
70.70945593149541,62.853461779448615,49.75195802005013,47500.0
70.34747368421053,62.90326315789474,49.37215789473685,47533.33333333333
70.5944303529909,62.88443246670894,49.71898118790953,47566.66666666667
70.38493447474106,63.02932783766647,49.42287571337983,47600.0
70.38948966545921,62.760600894949924,49.441428723630935,47633.33333333334
70.29570742955197,62.58771482961096,49.28927259565112,47666.66666666666
70.3797822870429,63.01936694145,49.427895793701104,47700.0
70.43701893072603,62.885479509049304,49.5922352818806,47733.33333333334
70.16038007486324,62.71604324267728,49.09389314975264,47766.66666666666
70.38306878306878,62.55968253968254,49.11708994708995,47800.0
70.25458167330677,62.653014608233725,48.968605577689246,47833.33333333334
70.18521164021165,62.60179894179896,48.89148148148149,47866.66666666666
70.4368766850771,62.59422034918724,49.28149621757454,47900.0
70.29077387143748,62.80739026419803,49.22264406074476,47933.33333333333
70.48632306363375,62.54796743711229,49.55341203570402,47966.66666666667
70.09902363688715,62.578959767557535,49.11130015967333,48000.0
70.26008428657435,62.52770724812188,49.425463968798255,48033.33333333333
70.25992723084575,62.52775960003142,49.43056827997801,48066.66666666667
70.18527215640748,62.71631355373209,49.20978338302422,48100.0
70.22341867862544,62.5234395369453,49.39766386817542,48133.33333333334
70.11465068188363,62.65301154359606,49.211632594298884,48166.66666666666
70.32640106241699,62.63575033200531,49.35428950863214,48200.0
70.26057359964116,62.851428722197284,49.310730587583436,48233.33333333334
70.26484789319542,62.84324951848236,49.29455687185035,48266.66666666666
70.36677376171352,62.631834002677365,49.280615796519406,48300.0
70.17571619812584,62.67376171352075,48.97001338688086,48333.33333333334
70.36497991967872,62.63520749665328,49.2752610441767,48366.66666666666
70.20997311827956,62.756021505376346,49.087741935483855,48400.0
70.40884223752063,62.67109912834072,49.422139622542744,48433.33333333333
70.41017721121378,62.6818050938408,49.44807999371778,48466.66666666667
70.19068586821382,62.81584127641939,49.31019477828429,48500.0
70.25341473509934,62.541209644039725,49.408293667218544,48533.33333333333
70.12385404492923,62.56270614205947,49.07549668874172,48566.66666666667
70.20018372703413,62.47797900262467,49.174855643044616,48600.0
70.01900653594771,62.47720261437908,48.82300653594771,48633.33333333334
70.08474308300396,62.54814229249012,48.87594202898551,48666.66666666666
70.23393700787402,62.485039370078745,49.16603674540683,48700.0
70.0072156862745,62.4513725490196,48.88721568627451,48733.33333333334
70.2393677566225,62.56806187913907,49.446114445364245,48766.66666666666
70.02027984641946,62.55765712371479,49.153400159765,48800.0
70.36202129838213,62.7398371902519,49.543979111202134,48833.33333333334
70.48429592329799,62.92294193942168,49.75939065639226,48866.66666666666
70.08762498376834,62.62334761719257,49.16631606284898,48900.0
70.6438492063492,62.85662071846282,49.79636591478697,48933.33333333333
70.14729209747928,62.754600424050466,49.2201136036437,48966.66666666667
70.40160832544939,62.719857037737825,49.43424787133397,49000.0
70.2087543864278,62.87562333447665,49.292050341679634,49033.33333333333
70.20297617477111,62.881137700852214,49.253819160444316,49066.66666666667
70.47777483443707,62.86739072847682,49.59443708609271,49100.0
70.32145695364238,62.935284768211915,49.35711258278146,49133.33333333334
70.47442972774098,62.7244560075686,49.62945443077894,49166.66666666666
70.22131769756302,62.80022511321101,49.3228542261079,49200.0
70.45064648375906,62.74356144223694,49.553794807106065,49233.33333333334
70.45006832755179,62.7500262798276,49.57316304005046,49266.66666666666
70.44413415250405,62.94228569908774,49.500997366951246,49300.0
70.48241471201287,62.84108598717712,49.65430991266721,49333.33333333334
70.28946465792457,62.87588717975778,49.39141447455211,49366.66666666666
70.57140972533706,62.850346956544676,49.713569562808374,49400.0
70.14394157526897,62.739523074104135,49.26220453891056,49433.33333333333
70.16974140649636,62.7439293598234,49.21052769893829,49466.66666666667
70.31463446305675,62.52655499285807,49.534476042072455,49500.0
70.12367225035709,62.66939358524865,49.14948707960005,49533.33333333333
70.25835294117647,62.426117647058824,49.19513725490197,49566.66666666667
70.17064558629777,62.53457180500658,48.97080368906456,49600.0
70.37739130434781,62.49615283267458,49.21472990777339,49633.33333333334
70.37264822134388,62.51480895915679,49.1894861660079,49666.66666666666
70.2451374041821,62.704672263649165,49.17719142723054,49700.0
70.32406181015452,62.6259966238151,49.36616023893001,49733.33333333334
70.27112458881578,62.824398643092096,49.35513466282895,49766.66666666666
70.42788856907895,62.78872841282895,49.734554893092096,49800.0
70.26521381578947,62.87633634868421,49.45399876644736,49833.33333333334
70.12779387417218,62.7018832781457,49.23719474337749,49866.66666666666
70.4095009646973,62.75189028523753,49.64999739271003,49900.0
70.22088195101439,62.82918112057185,49.33107326815936,49933.33333333333
70.47994849153791,62.71528434773468,49.733548827919684,49966.66666666667
70.19123830547672,62.805424156417544,49.21373383790603,50000.0
70.41518693438168,62.78950423471676,49.5144191446136,50033.33333333333
70.43220495501437,62.7871032426585,49.49668874172186,50066.66666666667
70.21570482497634,62.78673919899085,49.26043309155892,50100.0
70.40915063597183,62.68790076737097,49.613923052664774,50133.33333333334
70.26281628453074,62.8109812406005,49.41713938946202,50166.66666666666
70.42505474789583,62.79979420068072,49.639666499564655,50200.0
70.36108198783812,62.99344726357727,49.5635615433005,50233.33333333334
70.36918117005663,62.995675193961,49.566995177186,50266.66666666666
70.38909912750972,62.747161778618725,49.569168506254606,50300.0
70.19620519289393,62.78655524019762,49.31236203090508,50333.33333333334
70.62690580618212,62.86244256474521,49.875913742690045,50366.66666666666
70.17636392305265,62.666219909597395,49.31477977504468,50400.0
70.4370692505277,62.80455736120648,49.83858498003612,50433.33333333333
70.340927708376,62.625102396068,49.667980749539225,50466.66666666667
70.14724554577104,62.718897194347726,49.37748310464878,50500.0
70.2229494678795,62.52361687324451,49.384415182827844,50533.33333333333
70.03623057695776,62.6134460277785,49.08769036514031,50566.66666666667
70.17590142671855,62.283190661478606,49.03750972762646,50600.0
70.09838058774835,62.57289942052979,49.004190811258276,50633.33333333334
69.9690625,62.40263020833334,48.820989583333336,50666.66666666666
70.20865359477122,62.363398692810456,49.11830065359477,50700.0
70.00561361754967,62.512650041390714,48.903119826158935,50733.33333333334
70.20646669263732,62.51195948578106,49.256927671730935,50766.66666666666
69.96026490066225,62.586868791390714,49.09442259933775,50800.0
70.31278456125828,62.341137210264904,49.37849234271523,50833.33333333334
70.37623685235683,62.38550837553564,49.483911180366185,50866.66666666666
70.03381655107681,62.5200761328675,49.222427908431975,50900.0
70.27453560371517,62.59484004127967,49.500670794633635,50933.33333333333
70.09028063322367,62.64468544407895,49.30718030427632,50966.66666666667
70.22443838462537,62.39701337488638,49.396000519413064,51000.0
70.06701044420596,62.53754940711463,49.147684736800784,51033.33333333333
70.07536057377693,62.521398843022794,49.10043713844463,51066.66666666667
70.24050467240792,62.53631913724053,49.392168154333426,51100.0
70.14217386733944,62.64377693682329,49.14548512561758,51133.33333333334
70.24649896604978,62.53966965945083,49.38962908672094,51166.66666666666
70.07831845666571,62.550427976860455,49.16713347119338,51200.0
70.34644788849594,62.69840857083421,49.629966715207004,51233.33333333334
70.34379550655294,62.718171416684,49.57806324110672,51266.66666666666
70.16742644011603,62.76403854123498,49.36997513468711,51300.0
70.5094179404045,62.864340486850914,49.724100663887604,51333.33333333334
70.27156475238316,62.916505205507754,49.50011625203441,51366.66666666666
70.60256672461395,62.95122200634011,49.922717046732785,51400.0
70.2358500417711,62.79970760233918,49.399853801169606,51433.33333333333
70.25031328320803,62.79516499582289,49.3842940685046,51466.66666666667
70.39689515290202,62.6867328895361,49.647025171624705,51500.0
70.36990351696235,62.99211536466439,49.56190994916485,51533.33333333333
70.49960839598997,62.80691311612364,49.692773600668325,51566.66666666667
70.30986579995806,62.95481232962886,49.38433109666597,51600.0
70.53396512113619,62.7578059732665,49.59599519632414,51633.33333333334
70.47501040149781,62.727740794674425,49.593197420428545,51666.66666666666
70.22360588972431,62.82599728487885,49.317120927318285,51700.0
70.42907318096037,62.8334294401342,49.51895051373454,51733.33333333334
70.15968509800793,62.66584217665363,49.094311018910076,51766.66666666666
70.49245990584856,62.57695683395835,49.52642357509508,51800.0
70.20428327280496,62.660248878444776,49.24257637256997,51833.33333333334
70.23146763512071,62.640327921384326,49.27261803033539,51866.66666666666
70.45236060670797,62.50761055330058,49.60881756035035,51900.0
70.24056420987368,62.826577798444795,49.558810612519046,51933.33333333333
70.4182489860239,62.76517089049058,49.777855279134045,51966.66666666667
70.17757706757243,62.7885595182955,49.447635222067824,52000.0
70.33407583920429,62.63906444260257,49.576771653543304,52033.33333333333
70.3108423124741,62.658309158723576,49.5581744716121,52066.66666666667
70.05515273669607,62.503023322775704,49.06669633274875,52100.0
70.31977294228949,62.5011825922422,49.25643855776306,52133.33333333334
70.0084126984127,62.403862433862436,48.83650793650794,52166.66666666666
70.11157388245033,62.41540769867549,49.27367032284769,52200.0
69.9788027324399,62.48005423163165,48.988997236272624,52233.33333333334
69.93124576315378,62.5064400062575,48.9720759242843,52266.66666666666
70.20697951158941,62.39512624172186,49.30973199503311,52300.0
70.08359888980263,62.62546258223684,49.25573087993421,52333.33333333334
70.09787401574803,62.23635170603675,49.12884514435696,52366.66666666666
70.05412734004277,62.44733274234761,49.086822756426976,52400.0
70.20025970653161,62.378807947019865,49.24646149850668,52433.33333333333
70.17745747305544,62.395533047656144,49.25487599013115,52466.66666666667
70.00740470355113,62.492543150649226,49.08799603691922,52500.0
70.04723374648903,62.40742649521993,49.25982425851007,52533.33333333333
70.03317742598685,62.656044407894726,49.26570209703947,52566.66666666667
70.09799254966886,62.43398178807947,49.409431912251655,52600.0
69.9903790999635,62.55947228450749,49.1340147051155,52633.33333333334
70.00834332794494,62.55303227824999,49.124133076080724,52666.66666666666
70.19020180424467,62.54612295979559,49.332273035407,52700.0
70.05344944464724,62.582181780257606,49.16965635918026,52733.33333333334
70.00416494205298,62.47751966059603,49.29467611754967,52766.66666666666
69.9455655109726,62.509102713933245,49.083261914037145,52800.0
70.19794545549357,62.543333159514006,49.41661886635032,52833.33333333334
70.20751420973039,62.542550972519166,49.43859832090526,52866.66666666666
70.10124107003182,62.60019815403869,49.269880586118795,52900.0
70.21355668095053,62.56327749642903,49.33741072587974,52933.33333333333
70.15312614068937,62.6440006257496,49.204698336548994,52966.66666666667
70.38679050567596,62.75546955624355,49.5516769865841,53000.0
70.13683057829692,62.69799760129322,49.22774677999687,53033.33333333333
70.17975028139152,62.70083501295711,49.20872706331964,53066.66666666667
70.37779631850654,62.62259477499088,49.48667674818793,53100.0
70.2354409755072,62.764112267423535,49.28182487122885,53133.33333333334
70.3977420868749,62.65010168430933,49.540569432132244,53166.66666666666
70.17453199144809,62.708061740626796,49.24060071961203,53200.0
70.32334372664725,62.53745458293606,49.44654314943181,53233.33333333334
70.3473600123689,62.536887674904,49.45321720308192,53266.66666666666
70.13063238540447,62.61106349824698,49.15418776782237,53300.0
70.28425284098229,62.47455355992474,49.36812946117968,53333.33333333334
70.08447058823529,62.39843137254901,48.9081568627451,53366.66666666666
70.1394130806685,62.17218055007238,49.01758126069222,53400.0
70.02028758169935,62.385437908496726,48.96928104575163,53433.33333333333
70.01424836601306,62.38747712418299,48.92303267973856,53466.66666666667
70.37735307920947,62.54153412942588,49.3828023152735,53500.0
70.07344500714193,62.49572782755486,49.101649136475785,53533.33333333333
70.33631995844695,62.51712764576029,49.38420984287754,53566.66666666667
70.13555300620536,62.536058820462024,49.07456849350786,53600.0
70.28766230380143,62.539396151640005,49.37709235021119,53633.33333333334
70.57143224743965,62.85824198445782,49.75708918738097,53666.66666666666
70.1773944454624,62.66141402507657,49.168416092977,53700.0
70.4473208910295,62.677119597937356,49.54291547784207,53733.33333333334
70.22104957652832,62.76019102398354,49.242605735996406,53766.66666666666
70.41911822907045,62.68021951927389,49.52484103321812,53800.0
70.25220970422943,62.78222210495765,49.276166855755775,53833.33333333334
70.25268462573547,62.77098229598164,49.30642990950107,53866.66666666666
70.4198042268014,62.7192158518245,49.473100973589105,53900.0
70.16498013245032,62.69724503311257,49.16513907284768,53933.33333333333
70.32910277662661,62.69848217985909,49.51841587235806,53966.66666666667
69.90738824503312,62.52255794701986,49.02103166390729,54000.0
70.11333298841059,62.3997050910596,49.15035182119205,54033.33333333333
70.13074296357614,62.389098716887425,49.17055567052979,54066.66666666667
69.97397924597173,62.50125149919175,48.90141836575064,54100.0
70.07364829396326,62.284409448818906,48.96590551181103,54133.33333333334
70.03976127529252,62.54349134884695,48.953354448603505,54166.66666666666
70.28067476664755,62.423032799708004,49.25113417114252,54200.0
70.04334738109573,62.44391801690968,48.98039420987882,54233.33333333334
70.05371305918382,62.42808156427506,49.005837237913255,54266.66666666666
70.0859375,62.260787458609286,49.21787044701986,54300.0
69.99178271554372,62.54126561540036,49.12830227319271,54333.33333333334
70.20248252467105,62.474840666118425,49.34385279605264,54366.66666666666
70.06102362204724,62.6658464566929,49.22184521342728,54400.0
70.17063983488131,62.62252321981424,49.44140866873065,54433.33333333333
70.0779639007921,62.45092845085053,49.2644591611479,54466.66666666667
69.89573447358815,62.49694947072014,48.89028523752412,54500.0
70.13553909378845,62.47480564353585,49.330183493442924,54533.33333333333
70.03668663933564,62.591401240407855,49.08998212971723,54566.66666666667
70.0908640559003,62.52401314074152,49.269567711320846,54600.0
70.0321665089877,62.621150005255956,49.02270577105014,54633.33333333334
69.99484333691072,62.559432505300634,48.99994764809047,54666.66666666666
70.29555270528493,62.497971363505485,49.3568306153967,54700.0
69.85196850393703,62.289317585301845,48.73818897637796,54733.33333333334
70.06808398950132,62.22115485564304,49.01372703412074,54766.66666666666
69.84806324110671,62.36018445322793,48.85349143610014,54800.0
70.06332781456953,62.27809395695364,49.165355960264904,54833.33333333334
70.13589195390311,62.34126818584763,49.227720707097035,54866.66666666666
69.88367744448773,62.41264770808986,48.95899233865733,54900.0
70.02440142638818,62.207539480387155,49.2065206316862,54933.33333333333
69.81333333333333,62.14440104166667,48.60846354166667,54966.66666666667
69.90402075226979,62.05271076523995,48.79940337224385,55000.0
69.78635416666667,62.13486979166667,48.61174479166666,55033.33333333333
69.799375,62.13601562500001,48.60971354166667,55066.66666666667
69.92160830090792,62.07133592736706,48.827782101167315,55100.0
69.68341085271318,62.16922480620154,48.49428940568474,55133.33333333334
70.16376610708969,62.25568561014426,49.15588582576108,55166.66666666666
69.82583039142422,62.34684464143066,48.839977323678724,55200.0
70.0950951986755,62.32101096854304,49.241540769867534,55233.33333333334
70.09310326986757,62.32796978476821,49.271678394039725,55266.66666666666
69.8451629658486,62.43508635242176,48.86580963511232,55300.0
70.0549798727438,62.36299181924425,49.20802493182703,55333.33333333334
69.89075454972102,62.5152265734995,49.03697137195599,55366.66666666666
70.0821971172575,62.39062459420854,49.34016361511492,55400.0
69.89076743280093,62.43612517854824,49.01864692897026,55433.33333333333
69.8879885729126,62.412102324373464,49.038047006882216,55466.66666666667
70.04773406051162,62.43113881314114,49.25903129463706,55500.0
69.98858728372117,62.536083553647615,49.05873884249929,55533.33333333333
70.20380006307157,62.54157468727005,49.362030905077255,55566.66666666667
69.99776621465364,62.585435719541685,49.07082413539366,55600.0
70.29924839693052,62.54344055502997,49.427362556501635,55633.33333333334
70.30474088089981,62.55466204141701,49.418558814254176,55666.66666666666
69.98295559483918,62.56990580723463,48.99480224796178,55700.0
70.14022916009671,62.51731840639125,49.30392620624411,55733.33333333334
69.90801769494543,62.519985341465336,49.03421197288171,55766.66666666666
70.11592011263492,62.46279397194557,49.28229128643688,55800.0
69.91925222923294,62.54281170151744,49.05991552380456,55833.33333333334
69.92287636230903,62.54025655733431,49.0419252229233,55866.66666666666
70.05512727649007,62.352286837748345,49.18274006622518,55900.0
69.88135941270086,62.49096462857436,48.9421171518045,55933.33333333333
70.07379742286565,62.33222958057395,49.06173314851893,55966.66666666667
69.96316225165563,62.423659975165556,48.81870860927154,56000.0
70.07848716887418,62.38622723509934,49.08811051324504,56033.33333333333
69.99125000000001,62.22630208333334,48.90338541666667,56066.66666666667
69.82889684850672,62.45873167212101,48.819104800680286,56100.0
70.12250367201793,62.41734738578091,49.23106656015667,56133.33333333334
69.82451619553173,62.4591697374185,48.78112196253253,56166.66666666666
70.04056291390728,62.42459126655629,49.08617032284769,56200.0
69.93302168549539,62.51572523048954,48.8555252564602,56233.33333333334
69.91736138163874,62.525412284118936,48.88224905856382,56266.66666666666
70.10705103233346,62.449240358395,49.13346318659914,56300.0
69.94366965329178,62.500428515777166,48.95083755356447,56333.33333333334
70.0415976821192,62.44026800496689,49.15868170529802,56366.66666666666
69.95239579275419,62.50775223996882,48.91427087391248,56400.0
70.12697052330866,62.4124139722114,49.17436696532918,56433.33333333332
70.11606284898065,62.43100895987534,49.2135047396442,56466.66666666668
69.91354369562394,62.50731073886508,48.926295286326464,56500.0
70.0624853915076,62.437345799246856,49.16169328658616,56533.33333333332
69.86531619270225,62.48419685755096,48.902973639787035,56566.66666666668
70.15030008278146,62.324555049668895,49.20770384933775,56600.0
69.97243671962936,62.4601471088658,49.00177996492423,56633.33333333334
69.95327592073922,62.4737062534356,48.992670732664976,56666.66666666666
70.18166112608958,62.407507263827455,49.35164777635264,56700.0
70.02953852622727,62.6001524230001,49.12130768422159,56733.33333333334
70.19372164572144,62.42915993116755,49.42590081868906,56766.66666666666
69.97405962882496,62.56448446457085,49.081040755961574,56800.0
70.19221003586107,62.535533858597496,49.27542339606838,56833.33333333334
70.15739601601969,62.564248880977935,49.269481454336045,56866.66666666666
69.95979558846534,62.59344527298328,49.04742660478698,56900.0
70.15380403608489,62.56940605934193,49.23147520467226,56933.33333333332
69.99105699535903,62.614877196641814,48.968921103405116,56966.66666666668
70.16582467345496,62.63269900269614,49.247336596602366,57000.0
69.9981415072115,62.677957228489895,48.99937177708557,57033.33333333332
70.00876049434218,62.60171038222872,48.93729467591386,57066.66666666668
70.3097721228555,62.522292329352865,49.37834384940293,57100.0
69.97437538398525,62.60065533483514,49.05682981773499,57133.33333333334
70.20659654590312,62.32845085053889,49.21685495390209,57166.66666666666
69.88228346456694,62.29068241469818,48.653858267716544,57200.0
70.1940184453228,62.22914361001318,49.00832674571805,57233.33333333334
70.18861660079051,62.23638998682477,49.02450592885376,57266.66666666666
69.9529117259552,62.33575757575758,48.66798418972332,57300.0
70.07592611754967,62.32693501655629,49.0299824089404,57333.33333333334
69.90312946370601,62.41064796779639,48.857369172834694,57366.66666666666
70.09707830151928,62.359018309310464,49.21218023633294,57400.0
69.93278406424363,62.45067007352558,49.025108202534284,57433.33333333332
69.90811910100642,62.46696563591804,48.98834541377692,57466.66666666668
70.05822620438903,62.39841579015712,49.21038826126478,57500.0
69.92047786001818,62.406570575249965,48.966445916114786,57533.33333333332
70.27822422322855,62.48307724524253,49.35594063293459,57566.66666666668
70.01114264690423,62.58180910333228,49.074687270051506,57600.0
70.19144854409755,62.529012929675176,49.33207190160832,57633.33333333334
70.21859560601283,62.53623988226637,49.31220435193945,57666.66666666666
70.02485422548217,62.65995620168333,49.122133980633755,57700.0
70.28210337458114,62.62320255402232,49.40223213107835,57733.33333333334
70.19340397350993,62.7323178807947,49.19981456953642,57766.66666666666
70.38241769763053,62.81977353742925,49.551766617739574,57800.0
70.2425036695324,62.87051792828686,49.234850073390646,57833.33333333334
70.22939819668693,62.87730656322081,49.191130215978184,57866.66666666666
70.42060704550221,62.82858041518138,49.49701195219124,57900.0
70.24585867058084,62.865066051583135,49.291413294191656,57933.33333333332
70.35418850912141,62.82614279723213,49.522331725728684,57966.66666666668
70.07548887039735,62.80973060120658,49.26089556896193,58000.0
