B,G,R,Time[ms]
111.96029268292685,104.41965853658535,72.42709756097561,0.0
110.43898835607862,102.36151245774384,70.33526981344684,33.333333333333336
110.45094482237343,102.1795162509448,70.14021164021165,66.66666666666667
110.13687549173879,102.41050354051927,70.46294748229741,100.0
110.15418469708892,102.39230920535013,70.46594708890638,133.33333333333334
110.12268882769472,102.27261998426435,70.4727576711251,166.66666666666666
111.97690741406157,104.8454425679722,72.8924661636124,200.0
109.72874424527376,101.78756489372122,70.15214516602997,233.33333333333331
113.10411979752531,106.12528121484814,74.39548181477316,266.6666666666667
112.41732939663791,105.19896185532644,73.39435211200535,300.0
112.64228341939186,105.36233027347484,73.52622394339262,333.3333333333333
109.75243902439026,101.86034146341466,70.18539024390246,366.6666666666666
112.82573193533881,105.6022816028023,73.82982651298194,400.0
110.1122294054266,102.27409638554217,70.3873542952297,433.33333333333337
113.2822275449102,105.764622754491,73.9208383233533,466.66666666666674
113.04360999117304,105.74788272061454,73.67263878617267,500.0
113.04470739795308,105.75952477515092,73.62893336832313,533.3333333333334
113.17472279556473,105.48187971007536,73.74686794988719,566.6666666666666
112.95302639127941,105.75253394530505,73.7610919869956,600.0
112.8633581946835,105.40072193536051,73.8853509275196,633.3333333333333
112.94615588100906,105.5698242070077,73.67450640886902,666.6666666666666
112.9051855802565,105.20768988339113,73.46015660985721,700.0
112.93510145700502,105.195180489224,73.49232708671725,733.3333333333333
112.55634586538929,105.0177335849422,73.25262495766198,766.6666666666667
112.5642988590357,104.64610477242056,72.97190528769477,800.0
112.2197458455523,104.57854349951124,72.75818670576736,833.3333333333335
112.78483976391395,104.98726891371149,73.33337398175698,866.6666666666667
110.37552479008396,102.24940023990405,70.58846461415433,900.0
110.36627848860456,102.24785085965614,70.61008096761296,933.3333333333336
112.44841123788493,104.52815605447184,72.97916820022084,966.6666666666664
110.1913887506222,102.09449975111995,70.45716774514683,1000.0
112.53060826301157,104.61194575874347,73.05887517682066,1033.3333333333335
110.39591488507477,102.08584261768543,70.44886078490414,1066.6666666666667
110.78495433102479,102.32362240289068,70.9010589179966,1100.0
110.78859279333534,102.32849041453376,70.91802168021681,1133.3333333333333
112.01345158906136,104.26304508499628,72.38736141906874,1166.6666666666667
112.51782740718971,104.65789989225193,73.00342834753648,1200.0
112.35495641100992,104.6670584778137,72.76626016260163,1233.3333333333335
112.33436807095345,104.46287262872627,72.7231584134023,1266.6666666666665
111.94656319290466,104.13966494210396,72.37065779748706,1300.0
111.94244887903423,104.12613944321258,72.37967479674795,1333.3333333333333
112.03846629560915,103.9152752009895,72.34881880024737,1366.6666666666667
110.06503572420412,101.6779772273978,70.08427377616198,1400.0
110.29658838943762,101.87560471679096,70.53439326748641,1433.333333333333
110.06740860923794,101.70440602342444,70.07879125893628,1466.6666666666665
110.14772727272728,101.773483168716,70.36031042128603,1500.0
109.96436816220016,101.641398173241,70.30670982635753,1533.3333333333335
109.71069309942708,101.39879835724787,69.77599756629316,1566.666666666667
111.29127864005913,103.32451342695244,71.96738112835673,1600.0
110.8074912891986,103.00452961672474,71.32068193130911,1633.333333333333
111.147012987013,103.45056277056278,71.76833642547929,1666.666666666667
111.12237476808906,103.43935683364256,71.67198515769945,1700.0
111.09595547309831,103.45630179344464,71.63868893011751,1733.3333333333335
111.05541125541126,103.4557081014224,71.5717254174397,1766.6666666666665
110.97753865182436,103.43836734693878,71.57823129251702,1800.0
110.81118502094112,103.22988420793298,71.58206454791821,1833.333333333333
110.75338753387535,103.19852180339987,71.40862281350086,1866.666666666667
110.65577401692384,102.8697112991538,71.10597312095571,1900.0
110.65189148830264,102.85248880039819,71.09711299153807,1933.333333333333
110.40352964505254,102.67427622446957,70.98602022605591,1966.6666666666665
108.98253538090937,100.96487001907057,69.54815316671686,2000.0
110.40984496889506,102.8342796484645,71.08847635035055,2033.333333333333
110.75934463612928,102.98445865556215,71.34909775927028,2066.666666666667
110.33792209087734,102.5901790612998,70.79325652152227,2100.0
110.30063853762364,102.4605483911356,70.6606735945912,2133.333333333333
110.29402779516714,102.4928759233755,70.70992863403029,2166.6666666666665
110.702161411858,103.04521118381916,71.27421673606979,2200.0
110.47738041797597,102.65549403960293,70.91994613197666,2233.333333333333
110.77069700575056,103.15152191156058,71.32314594487406,2266.6666666666665
109.47059564603909,101.32138177786736,69.78429248135457,2300.0
109.45905563394476,101.34950110864744,69.81117718201976,2333.333333333333
109.42592219310623,101.41894275347711,69.72321608546665,2366.6666666666665
111.37992116284799,103.74109386548409,71.84195614683418,2400.0
111.00225560182432,103.37009220701964,71.45099643069602,2433.333333333333
111.0408239143367,103.37152984334722,71.48797838588142,2466.666666666667
111.35240206947523,103.79583641290958,71.83569844789356,2500.0
111.33621581670364,103.80339985218029,71.83419561468342,2533.333333333333
109.75995263051806,101.51526909897196,70.03953336020963,2566.666666666667
109.68713465027213,101.55497883491232,69.93887321104616,2600.0
109.69592824027414,101.56858496270914,70.00939830679299,2633.333333333333
109.6691695222737,101.58007458173756,69.95905563394477,2666.6666666666665
109.91632931889484,101.75619876530716,70.06907195627973,2700.0
109.929207570084,101.75794454002632,70.08270923995548,2733.333333333333
109.92880275275782,101.74471207367675,70.06836352595892,2766.666666666666
109.93512802347941,101.77621192187028,70.06699726748305,2800.0
109.89856795870865,101.79809735856695,70.00339034510678,2833.333333333333
109.93758114196982,101.74627701550293,69.91044472163533,2866.666666666666
109.93724437627813,101.72512781186094,69.80288854805725,2900.0
109.93781024870808,101.80963775679048,69.85207341598147,2933.333333333333
109.91004601226992,101.747009202454,69.8165899795501,2966.666666666667
109.85691011378971,101.80411373876741,69.85703739531095,3000.0
109.95715703994092,101.68729475854694,70.01405187994807,3033.333333333333
109.96965746421269,101.7066717791411,69.84176891615543,3066.666666666667
109.80322276811852,101.57246137005829,69.79100374207673,3100.0
109.77262429040552,101.58498587175114,69.77949749255403,3133.333333333333
109.51515996552249,101.41210769152771,69.65938244688942,3166.666666666666
109.77310838445808,101.49233128834356,69.75012781186093,3200.0
109.71883511951737,101.65659445561691,69.73507624163125,3233.333333333333
109.95234579843698,101.7499681796197,69.85181885293893,3266.666666666666
110.02375073186874,101.84499656339891,69.92930784308734,3300.0
110.0717104090828,101.84654939795841,69.9894865463432,3333.333333333333
110.3890645387935,102.26987353206866,70.42346682726088,3366.666666666666
110.53800398208062,102.51660029865604,70.53424589347935,3400.0
110.9305430091338,102.66104586971797,70.6746963765934,3433.333333333333
110.921906237505,102.84341263494602,70.6121801279488,3466.666666666667
111.27565982404691,103.29929130009776,71.49459921798632,3500.0
111.32438905180841,103.29863147605083,71.52739491691105,3533.333333333333
111.07939393939395,103.39459393939394,71.46974545454545,3566.666666666667
111.29618451723715,103.37315666789353,71.487007729113,3600.0
111.27555522506444,103.205334126512,71.24586059884989,3633.333333333334
111.36558382781857,103.12732575681385,71.06534748063964,3666.666666666666
111.4822091739436,103.35047174545821,71.24202047576031,3700.0
111.48000100371374,103.34944293887385,71.26613469838402,3733.333333333334
111.37609373428543,103.13682993060443,71.07718998290255,3766.666666666666
111.27564442424699,103.04844858491757,70.95470726350072,3800.0
111.55247680373172,103.1606246514222,71.07851239669422,3833.333333333334
111.48238097652487,103.20574963240887,71.0480910611976,3866.666666666666
111.38584665101364,103.07167562927616,70.97124390921255,3900.0
111.40546340478174,103.05869878058016,70.9979802570123,3933.333333333333
111.56312427115552,103.21160573949196,71.03146073112609,3966.666666666667
111.71966739339857,103.20273284997214,71.1301019114739,4000.0
111.36378095887298,103.11277739907595,70.92632987452345,4033.333333333333
111.38811886187482,103.10399151707944,70.98432174505794,4066.666666666666
111.40632179555149,103.11550405210936,70.89196899694514,4100.0
111.38622535282384,103.12428993410587,70.91666035496982,4133.333333333334
111.59957917152565,103.2907012117832,70.97056735790702,4166.666666666667
111.38572041707693,103.16337196091796,70.87091317629832,4200.0
111.51666164809795,103.37574023888388,71.11964267790827,4233.333333333333
111.50664960353308,103.37591588878851,71.10295593696678,4266.666666666667
111.57407595193428,103.35331846068044,70.99003701262484,4300.0
111.57341682299854,103.35935202555392,71.01128124524666,4333.333333333333
111.53764640267708,103.36472646149168,70.96602950869544,4366.666666666666
111.59648633575014,103.3483242914364,71.05731886629823,4400.0
111.42379257239516,103.21530460248933,70.92845060466055,4433.333333333334
111.77051141715246,103.25252653819722,71.13374742254919,4466.666666666667
111.637843077237,103.27777777777777,70.91870727476788,4500.0
111.623125191307,103.28213957759412,70.93528721559025,4533.333333333333
111.59930030928358,103.36373776808806,71.04783755006845,4566.666666666666
111.61182532394652,103.33338434853586,70.90169370472401,4600.0
111.68899254677281,103.37190082644628,71.04687420777772,4633.333333333334
111.90107680166992,103.54960160883844,71.12183387215845,4666.666666666667
111.74476499518327,103.41337524717336,71.133017289459,4700.0
111.74757896871674,103.42054961212796,71.13900015210669,4733.333333333333
111.70516655681185,103.47079551792324,71.04127161182377,4766.666666666667
111.72679105612735,103.4800486741368,71.07379708969223,4800.0
111.73807230137406,103.51224458753741,71.03179029559399,4833.333333333333
111.56619175581808,103.38079906707905,70.91058662475282,4866.666666666666
111.58771485068195,103.38115398265984,70.91545403843229,4900.0
111.75745233307028,103.52399256675915,70.99633429218746,4933.333333333334
111.61065573770493,103.23600991702084,70.98583282736287,4966.666666666667
111.49833029751065,103.25576806314513,70.85268670309654,5000.0
111.68702173247627,103.30570860116316,70.96153453729211,5033.333333333333
111.6271655743535,103.39856729157141,70.97099019458416,5066.666666666666
111.65717387462445,103.44575727738643,71.11674114468933,5100.0
111.74204556860384,103.62006925624813,71.28445247415438,5133.333333333334
111.6051907394784,103.45555303087679,71.05932995026383,5166.666666666667
111.65414426014289,103.4300790224444,71.07382160620061,5200.0
111.66201896263244,103.37397961770522,71.02712569081783,5233.333333333333
111.68090585473,103.48948471307024,71.1177005226085,5266.666666666667
111.65204877679315,103.50228483425484,71.0697821202252,5300.0
111.66323310358757,103.49642757959049,71.07053952384558,5333.333333333333
111.89055924555088,103.65061096182123,71.19839780966385,5366.666666666666
111.86338285250723,103.6661004918116,71.1706636921361,5400.0
112.32042415859844,103.83246247630757,71.36073971620306,5433.333333333334
111.99704111825324,103.74806142230385,71.12534435261708,5466.666666666667
112.05726456484032,103.75147944087338,71.23000204060808,5500.0
112.0500969288848,103.76599326599329,71.18633302724211,5533.333333333332
112.01925823895522,103.784435261708,71.188246097337,5566.666666666666
112.04346495255587,103.79017447199269,71.23245077032956,5600.0
112.02400969476628,103.98187280668535,71.39687949708399,5633.333333333334
112.14395718144866,104.01598121639023,71.51940215607564,5666.666666666668
112.10279563309868,103.89281705948372,71.27938475665749,5700.0
112.26786841374435,104.14746648488979,71.55838319573834,5733.333333333332
112.19719926538107,103.89001122334456,71.3005305581063,5766.666666666668
112.0213013560008,103.89731329690346,71.22143796802267,5800.0
112.56144781144779,104.26637588001222,71.57894602591574,5833.333333333332
112.68984683161725,104.3170175708212,71.54723118692691,5866.666666666666
112.72001219326323,104.35883757557282,71.80282477264646,5900.0
112.75943707768124,104.35792308083117,71.80699080424729,5933.333333333334
112.52306558959506,104.32347711222882,71.66237362190722,5966.666666666668
112.65570411351877,104.34662670969723,71.52771374417294,6000.0
112.61144408585626,104.29627068285437,71.51116746068337,6033.333333333332
112.78701152943577,104.52397714518926,71.81277420671358,6066.666666666666
112.67715029078664,104.5913427201306,71.69115396388123,6100.0
112.66837567595144,104.58986327925722,71.70133149678605,6133.333333333334
112.59465020576131,104.4720825077478,71.70964791952446,6166.666666666668
112.02705008531565,104.03999799257252,71.45576131687244,6200.0
112.35827715923149,104.26206165265472,71.56583099800551,6233.333333333332
112.53759570045123,104.34900877148507,71.47495310044111,6266.666666666668
112.17537976934408,103.90346999949196,71.23197683279987,6300.0
112.01568508399107,103.7425116373204,71.15624367536938,6333.333333333332
112.17861086018269,104.02717554953327,71.47284954331025,6366.666666666666
112.24051583823713,103.84164266933769,71.595117065231,6400.0
111.98369851007887,103.90451984474771,71.34591210717416,6433.333333333334
111.98679768203577,103.66923658352228,71.28742756361805,6466.666666666668
111.79476502082096,103.79464108665476,71.40858615903231,6500.0
111.6973913910918,103.62404608708664,71.19529652351738,6533.333333333332
111.91416030724724,103.73360267345005,71.49541124245597,6566.666666666666
111.51839248900923,103.47927274533669,71.11455254464619,6600.0
111.53071210352451,103.49954049824892,71.15021981570254,6633.333333333334
111.75173507832639,103.86305274638113,71.38969859210788,6666.666666666668
111.7072671953713,103.68280213476982,71.1799591002045,6700.0
111.72140755149886,103.6874906479126,71.16609307197366,6733.333333333332
111.61626515038157,103.65327447753005,71.14227642276424,6766.666666666668
111.65277569953614,103.62442017058208,71.17731557683675,6800.0
111.59628909172527,103.60718739089228,71.11407052720834,6833.333333333332
111.73831612549252,103.54815701531248,71.27445259115167,6866.666666666666
111.37756141178812,103.39695983706316,70.96480464966095,6900.0
111.58509152576187,103.50159608958052,71.10591550700781,6933.333333333334
113.3667142014162,105.70697285601887,73.11998426435878,6966.666666666668
111.56182353234571,103.55720983590204,71.0626963938351,7000.0
113.61388670338316,106.03161880409128,73.37497541306058,7033.333333333332
111.74890492782478,103.7960676953708,71.33247884519659,7066.666666666666
113.62244295830057,106.03272521636507,73.41999409913456,7100.0
113.61811565696304,106.0649832808812,73.43091070023604,7133.333333333334
113.60058516915814,106.07801435877262,73.3575924468922,7166.666666666668
113.58136664362594,105.91702873506468,73.2377801915671,7200.0
111.77270441516643,103.66297898018705,71.13373730262497,7233.333333333332
113.61178038905895,105.89819294954084,73.27290905500149,7266.666666666668
113.56667818702478,105.91184457391131,73.23057173891577,7300.0
113.57559000691221,105.91811494025872,73.21896909252494,7333.333333333332
113.43103107065107,105.61898871957253,73.10473975855926,7366.666666666666
113.33044725905405,105.61438749257866,73.01046408074411,7400.0
113.70055566483084,105.98138768686071,73.39085857592447,7433.333333333334
113.63028619197482,105.97927321007082,73.29029799370575,7466.666666666668
113.34486938452405,105.57488125865822,72.96603502869581,7500.0
113.64894767899293,105.9716512588513,73.35604346970891,7533.333333333332
113.56284421715185,106.02815204563335,73.2809795436664,7566.666666666666
113.67849446566757,106.13796650014692,73.54234009207562,7600.0
113.55468135326514,105.96631589299764,73.29238788355626,7633.333333333334
113.69328533646782,106.1529532765207,73.56339994122833,7666.666666666668
113.5635183173694,105.85276982324478,73.14972351140516,7700.0
113.70141541776864,106.16429131158782,73.50658732490939,7733.333333333332
113.69960329121365,106.20680282104028,73.47477715741013,7766.666666666668
113.19480390452298,105.5270857653809,72.68510469188546,7800.0
113.87792633950436,106.18794690958956,73.66622587912626,7833.333333333332
113.69172895357984,106.04927222659323,73.4281323760818,7866.666666666666
113.70680074744295,106.07267899291895,73.40219315499606,7900.0
113.68558221872541,106.0940204563336,73.40386506687649,7933.333333333334
113.66431451612905,106.07083497246263,73.36164929189614,7966.666666666668
113.68772128245476,106.05836939417782,73.38778520849725,8000.0
113.67808320220298,106.05549272226592,73.34350413060581,8033.333333333332
113.80448623763344,106.18143304927023,73.59824664511706,8066.666666666666
113.77118229013617,106.18111470271327,73.58894113037516,8100.0
113.73266235674404,106.18393084533257,73.59413262807327,8133.333333333332
113.6680025570417,105.99700039339106,73.46213611329662,8166.666666666666
113.56791251110891,105.87360521378493,73.18433395872421,8200.0
113.56109904216451,105.8831835686778,73.24372963365259,8233.333333333332
113.54512688851584,105.87599980250816,73.20655179223856,8266.666666666668
111.73770532603285,103.74009457441512,71.23205574912892,8300.0
113.58118607395753,106.00181943351693,73.2797256097561,8333.333333333334
113.51932951515751,105.8706675224647,73.13582502221783,8366.666666666668
113.53860965735164,105.8709390737632,73.15211810012835,8400.0
113.56675224646985,105.85605312530858,73.1502172410388,8433.333333333334
113.57294855337216,105.85978078404268,73.13397353609162,8466.666666666666
113.31733623589943,105.61211161686128,72.90753018009103,8500.0
113.22793770646533,105.478378579767,72.72710563572689,8533.333333333334
113.50059488399765,105.70590422367636,72.96874380329169,8566.666666666666
111.74128919860628,103.7231707317073,71.30540069686411,8600.0
111.75042309606769,103.74118964659034,71.33618715778994,8633.333333333332
111.66605857656937,103.61357956817272,71.18809976009597,8666.666666666666
111.95957989345855,103.66441970259285,71.22833194476003,8700.0
111.96957762124771,103.66861066929232,71.28384963013457,8733.333333333332
111.93854973348084,103.76430654731972,71.26795232827116,8766.666666666668
112.0598601327981,103.64636824964023,71.3259612714282,8800.0
111.94828364950315,103.68909966877449,71.35955535481281,8833.333333333334
112.14001713364244,103.84844285426323,71.50355271114695,8866.666666666668
111.94685335742248,103.76540700592192,71.38527551942187,8900.0
111.96384121248622,103.75855665964069,71.39041955234367,8933.333333333334
112.14324228986092,103.90836020963516,71.45802257609353,8966.666666666666
112.03769625752938,104.1075836871729,71.61363187518515,9000.0
112.38400363553735,103.92388093615088,71.29879572824358,9033.333333333334
112.12762747661672,103.80898622146229,71.1805290153877,9066.666666666666
112.2945542679694,103.82620111590799,71.17579338029233,9100.0
112.11244091320528,103.68726742431862,71.09526802775822,9133.333333333332
112.07297644963388,104.05442311498122,71.44750643182267,9166.666666666666
111.99269767899293,104.05214889850511,71.61000196695515,9200.0
111.90357460254765,103.89263849116224,71.53105559395675,9233.333333333332
112.00912155463018,103.73515268689272,71.68741324608371,9266.666666666668
111.94717113154738,103.79435725709715,71.48383146741304,9300.0
111.97023690523793,103.7720411835266,71.48713014794082,9333.333333333334
111.98910970591189,103.66418247515809,71.37026999899629,9366.666666666668
112.1461902842169,103.799889135255,71.35791675065511,9400.0
112.36779268385817,103.93327902655092,71.35264618282717,9433.333333333334
112.3254079372757,103.92225644680906,71.31181427080416,9466.666666666666
112.31728737621872,103.960873660362,71.35628643433544,9500.0
112.11283780357958,103.80728083962887,71.26527404553059,9533.333333333334
112.150382801805,103.80020787912588,71.20922273487807,9566.666666666666
112.15015464178877,103.81975358718249,71.20316381889165,9600.0
112.13951320298328,103.95567929852852,71.40415238863133,9633.333333333332
112.01791629027402,103.76472949914684,71.36153768945097,9666.666666666666
112.13825318840212,103.73708728966729,71.16831708372578,9700.0
112.08848611358604,103.74266222029884,71.12303031845836,9733.333333333332
112.24821274653958,103.72019976676977,71.34992141154997,9766.666666666668
112.15739632920094,103.6268869485528,71.22684112720515,9800.0
111.98406927718449,103.56519982832184,71.19758135777222,9833.333333333334
111.97836350324421,103.55315711075764,71.21782928122396,9866.666666666668
112.00416571991215,103.62112146229393,71.28460703375495,9900.0
111.9977416440831,103.6757753688648,71.43046773060324,9933.333333333334
112.16030034267284,103.82347309010281,71.4290465631929,9966.666666666666
112.22995994524159,103.74699589311972,71.30454291943417,10000.0
112.16503574506922,103.74598184860315,71.28806469604017,10033.333333333334
112.20777772144196,103.78520002028091,71.28826750494349,10066.666666666666
112.21317109182093,103.7397856579182,71.27663365832548,10100.0
112.21047272357,103.74375684138175,71.25927245882444,10133.333333333332
112.23563859453432,103.8212239517315,71.35651270090756,10166.666666666666
112.23342068131426,103.89440133037694,71.46532957065108,10200.0
112.19344088464744,103.65780504430808,71.42513065212452,10233.333333333332
112.05232469705419,103.56266795112306,71.17512548800894,10266.666666666668
112.26511791977423,103.80901028018543,71.48024591816166,10300.0
112.25781092521669,103.81858496270914,71.47772626486595,10333.333333333334
112.23292602545251,103.76699792120873,71.31235106221163,10366.666666666668
112.26299244536837,103.73688079906708,71.2821071845054,10400.0
112.18942351569237,103.80616539066065,71.24719870202303,10433.333333333334
112.23363585661413,103.78563098920044,71.34459767783805,10466.666666666666
111.9975510616274,103.65515413163678,71.14653235375798,10500.0
112.1756325102672,103.80018252801298,71.20785377478072,10533.333333333334
112.2365512345992,103.79425036759115,71.29632915885006,10566.666666666666
112.12225233363444,103.72568503462813,71.38921509585467,10600.0
113.64757731313385,105.46490547139099,72.80808814323275,10633.333333333332
113.62398898209592,105.4527356955052,72.81201953173907,10666.666666666666
112.47831978319785,104.02471645086821,71.66332931847838,10700.0
112.51257151460405,104.03578239486099,71.71732911773563,10733.333333333332
112.57433458152008,104.13849812771988,71.55864791013056,10766.666666666668
112.34971896015257,104.09743551139215,71.62531366054401,10800.0
112.29802459181616,103.97843176778878,71.5377947994356,10833.333333333334
112.33964926426123,103.93499294497076,71.53421689175569,10866.666666666668
112.10926809563485,103.77361205786563,71.27869928551591,10900.0
112.11638768966648,103.76129162564064,71.27731071221187,10933.333333333334
112.269279521371,103.88437357399992,71.37654008010952,10966.666666666666
112.08430554158704,103.8680981595092,71.39754098360656,11000.0
112.27303148608223,103.87167266643006,71.36188713684531,11033.333333333336
113.70835812016657,105.86248264921673,73.20694527067222,11066.666666666664
113.74682728534604,105.86957168352171,73.21832242712671,11100.0
113.73411163989687,105.87053837001785,73.2190412452905,11133.333333333332
113.729253420583,105.85306365258776,73.18929704540949,11166.666666666664
114.00757874987656,105.99059445047892,73.53767157104771,11200.0
113.76615231458435,105.71010452961671,73.11468392234943,11233.333333333332
113.82874776918501,105.87024092801904,73.36503569303986,11266.666666666668
113.7973428514773,105.91805472932778,73.26430200277613,11300.0
113.82304679754117,105.90325698988696,73.29830953797342,11333.333333333336
113.8658536585366,105.95607773150905,73.31251239341661,11366.666666666668
114.00757277734068,106.33347265932336,73.65634834775767,11400.0
113.91710279450972,106.14900760343636,73.5150340673447,11433.333333333336
113.88083835291792,106.12516046213092,73.49143379085612,11466.666666666664
114.01052321007082,106.235346184107,73.68078776553895,11500.0
113.98155979543668,106.24867230527144,73.68442663257278,11533.333333333336
113.93189417781277,106.25309795436665,73.62440991345397,11566.666666666664
113.98711644374508,106.25730232100707,73.58236624704956,11600.0
113.96530782848153,106.26462922895357,73.60528127458693,11633.333333333332
113.81906788046705,105.82723134771422,73.46489709083713,11666.666666666664
113.60768355432415,105.84761527805263,73.30390362161091,11700.0
113.58138729467642,105.84897585592716,73.27431723728479,11733.333333333332
113.65945972689491,105.8274787255096,73.38454878290125,11766.666666666668
113.95684992132179,106.27468528717544,73.70404701022818,11800.0
113.65728280229564,105.85055907381752,73.37208094201463,11833.333333333336
113.62591529784285,105.88252028497921,73.3212448050663,11866.666666666668
113.72126542981744,106.10057407544286,73.44896149013229,11900.0
113.75373888190799,106.10224948875256,73.4390075639983,11933.333333333336
113.67321393231742,105.9502770631308,73.23132297644962,11966.666666666664
113.35744989253763,105.41910331384015,72.7107762283201,12000.0
113.31231568950868,105.44931773879142,72.66859099315239,12033.333333333336
113.64081865825493,105.84285040113262,73.06224385882119,12066.666666666664
113.64419661707359,105.81346712699636,73.08643600506694,12100.0
113.6499590174114,105.8044757954348,73.10347482675544,12133.333333333332
113.8439540866812,105.89221749455768,73.4266772214526,12166.666666666664
113.37476883090919,105.3553006447743,72.75021242565103,12200.0
113.47523397052969,105.51157407407408,72.9293857029072,12233.333333333332
113.85120851504179,106.04459556015472,73.41759676743784,12266.666666666668
113.72662279833763,105.91450623392043,73.20801998812586,12300.0
113.73552839897093,105.90651593113,73.20463091232929,12333.333333333336
113.697382742925,105.912873540471,73.20858895705521,12366.666666666668
113.73612210567978,105.93738867999208,73.23020977637047,12400.0
113.70896002374826,105.94473580051456,73.22348110033644,12433.333333333336
113.60807647768988,105.87151058220611,73.11584990267818,12466.666666666664
112.28381147540985,104.14441723310676,71.5172181127549,12500.0
112.08115978098556,104.01356396217022,71.4341712294674,12533.333333333336
114.02100819591192,106.23807642934729,73.46413054211513,12566.666666666664
114.07474429583006,106.41047895357984,73.68816384736428,12600.0
112.12817221289622,104.01999605016293,71.69722030216253,12633.333333333332
112.14902936784469,104.06246888999502,71.5476107516177,12666.666666666664
112.13374813339969,104.03616226978596,71.5901443504231,12700.0
112.1469636635142,104.03743155798904,71.54196117471379,12733.333333333332
113.92457897793264,106.60457801006581,73.90338269454124,12766.666666666668
112.38765966006235,104.02569646987831,71.40576284823494,12800.0
112.31504576083677,104.03570351000704,71.33521070099567,12833.333333333336
112.16290609262369,104.11494025871431,71.48711365656166,12866.666666666668
114.06948327388413,106.6908319676082,73.95114720910055,12900.0
114.00602525788105,106.71594524245636,73.89236479321316,12933.333333333336
114.1903552071235,106.84618176538908,74.07665505226481,12966.666666666664
114.40062779186285,107.08117831703487,74.29658336351564,13000.0
114.47531087770132,107.12951829047444,74.38990703851262,13033.333333333336
114.13011369157516,106.72580410067049,73.96149548148868,13066.666666666664
114.25846883468834,106.70349399922571,74.14992257065428,13100.0
114.52456839309427,106.93405770855968,74.37071109501389,13133.333333333332
112.82750511247444,104.27213701431494,71.48762781186095,13166.666666666664
112.79737654320988,104.12664609053499,71.34058641975308,13200.0
112.59791966472264,104.25181145699207,71.38960842232825,13233.333333333332
112.55265393842464,104.2623700519792,71.52923830467813,13266.666666666668
112.2751493779998,104.47215692036438,71.77260260554412,13300.0
112.27884709569989,104.46841022627092,71.73873542952298,13333.333333333336
114.30763646922183,106.99240224545105,74.1443573364305,13366.666666666668
112.43627305175491,104.48136030140788,71.80889351576442,13400.0
112.4166170930002,104.47543624826493,71.86436644854254,13433.333333333336
112.50332367053178,104.47723410635746,71.73957916833267,13466.666666666664
112.54845561775292,104.4810575769692,71.74152838864454,13500.0
112.373593827775,104.35216525634644,71.6768043802887,13533.333333333336
112.23680527788885,104.23975409836063,71.45699220311876,13566.666666666664
112.45201592832254,104.31592832254853,71.91194624191141,13600.0
112.53608350898321,104.34108702198134,71.75737729599518,13633.333333333332
112.52930844123257,104.38537589079594,71.78146642577535,13666.666666666664
112.50491819733013,104.38723276121651,71.70101876944696,13700.0
112.2904588164734,104.27591463414636,71.62490003998401,13733.333333333332
112.33166733306679,104.3093012794882,71.66828268692522,13766.666666666668
112.48687644283852,104.46055404998495,71.66839807286962,13800.0
112.54328515507378,104.46986349493125,71.62594098163206,13833.333333333336
112.52381310850146,104.44233664558868,71.63705711131186,13866.666666666668
112.52368764428385,104.42389340560072,71.76159289370672,13900.0
112.36078068772491,104.28348660535784,71.70254398240705,13933.333333333336
112.54137809896618,104.43355415035631,71.7156228043762,13966.666666666664
112.52328615878751,104.43277627220716,71.7466626518117,14000.0
112.54310950516913,104.40866204958346,71.6769547325103,14033.333333333336
112.6296045367861,104.38286660644384,71.82063635451169,14066.666666666664
112.51821740439628,104.38233965672993,71.71692763223929,14100.0
112.32999300279889,104.2392542982807,71.62599960015994,14133.333333333332
112.38884446221512,104.18809976009595,71.67348060775691,14166.666666666664
112.34525243400586,104.0723175750276,71.55535481280741,14200.0
112.40761195521792,104.23483106757296,71.6688074770092,14233.333333333332
112.37734906037585,104.25454818072771,71.65618752499,14266.666666666668
112.45231907237104,104.27071671331468,71.70061975209916,14300.0
112.44799580167931,104.26594362255098,71.72603458616554,14333.333333333336
112.40986105557778,104.28421131547381,71.671806277489,14366.666666666668
112.4391493402639,104.31802279088363,71.68779988004799,14400.0
112.45389344262293,104.32312075169932,71.66488404638146,14433.333333333336
112.571432163331,104.34582118073016,71.6117871869657,14466.666666666664
112.34345729505921,104.12691559998993,71.4204852432528,14500.0
112.4609406237505,104.39504198320671,71.69679628148741,14533.333333333336
112.50374635421906,104.16003721210902,71.6271246102786,14566.666666666664
112.43635045981607,104.27763894442222,71.69197321071572,14600.0
112.51257415200527,104.1565938244689,71.50884753840694,14633.333333333332
112.54336043360432,104.42025494329016,71.74059018367961,14666.666666666664
112.41580867652941,104.25597261095562,71.71356457417033,14700.0
112.43130247900841,104.25122451019593,71.69329768092763,14733.333333333332
112.40666233506596,104.25502299080368,71.6781287485006,14766.666666666668
112.44777089164336,104.27713914434229,71.65431327469013,14800.0
112.421906237505,104.281512395042,71.64004398240705,14833.333333333336
112.47966650074663,104.45632155301143,71.80878546540568,14866.666666666668
113.95272610330495,106.26063724520088,73.31384820898475,14900.0
113.871935620079,106.09316708477188,73.1531755296689,14933.333333333336
112.59052235603019,104.37685879471836,71.56345779999495,14966.666666666664
112.37852359056377,104.30650239904035,71.5702219112355,15000.0
112.70213840288822,104.37516725996616,71.68984321745056,15033.333333333336
112.52008381933399,104.43729960362543,71.53407053952384,15066.666666666664
112.53646898432173,104.42581231538286,71.6213991769547,15100.0
112.56118558913376,104.42487818425104,71.58244338407937,15133.333333333332
112.49188315786816,104.43187154434601,71.54389153980156,15166.666666666664
112.50528920194904,104.38473579237042,71.57653563584033,15200.0
112.49534196773459,104.38849756368502,71.48855058193844,15233.333333333332
112.53583781463809,104.33507536166023,71.6058471559494,15266.666666666668
112.4824156126133,104.34898634148806,71.55457093084905,15300.0
112.68115905288242,104.51761902347513,71.67160168331391,15333.333333333336
112.51394885000884,104.34742104067257,71.56913832714787,15366.666666666668
113.4847235144718,105.60814242965272,72.64259310483567,15400.0
113.4999371338044,105.59974350592199,72.72695953931651,15433.333333333336
112.48150672826885,104.33853417152667,71.58744224797394,15466.666666666664
112.72236107955263,104.25102880658436,71.80799818223129,15500.0
112.74422479739452,104.26367744704487,71.79317831805902,15533.333333333336
112.5777727284203,104.30947511929104,71.62692822338356,15566.666666666664
112.5750965689616,104.34158903279557,71.67545254866317,15600.0
112.50751091923551,104.36181170945996,71.61435532328511,15633.333333333332
112.60400414047312,104.35640889696785,71.7012547653311,15666.666666666664
112.58304930697572,104.36307404882729,71.62778661415335,15700.0
112.52557927293007,104.26154743193227,71.51508391218375,15733.333333333332
112.5201287836536,104.25726309384984,71.56690158697968,15766.666666666668
112.53614077608624,104.35911030321392,71.60582190916206,15800.0
112.70979813150728,104.40091133569227,71.63836774177125,15833.333333333336
112.56627546613831,104.29718538840623,71.48031296042271,15866.666666666668
112.73881831835656,104.3806481175063,71.6346002087417,15900.0
112.76566261974286,104.31647968854055,71.50970749449311,15933.333333333336
112.53062414439995,104.26486842772398,71.51881052578209,15966.666666666664
112.862459588117,104.39699106483721,71.70592877326071,16000.0
112.60670283425443,104.32928560563809,71.62761750240836,16033.333333333336
112.66203890344688,104.37356379762144,71.83748236242694,16066.666666666664
112.58223901029257,104.3543578563099,71.60890838107794,16100.000000000002
112.56808103205,104.41100584559564,71.70877847208223,16133.333333333332
112.41854862993073,104.291177356218,71.67075680016059,16166.666666666668
112.57964468533577,104.56215497340159,71.79238181270702,16200.0
112.62850231808106,104.43365752872404,71.7956561177182,16233.333333333336
112.4809076369452,104.43687524990005,71.75589764094362,16266.666666666664
112.68992773261068,104.5951018769447,71.85533975710128,16300.0
112.7467630231858,104.56433805078792,71.88304225634849,16333.333333333332
112.6821336506048,104.72451913543526,72.05011897679951,16366.666666666668
112.61212045793928,104.48494275759084,71.7275012444002,16400.0
112.59584324527357,104.45451358457493,71.50897708776763,16433.333333333332
112.82075873294106,104.35314886690873,71.77260548391135,16466.666666666664
112.46877458693943,104.41401947285601,71.89481707317074,16500.0
112.45820220298977,104.41692073170731,71.85518292682926,16533.333333333336
112.659075325693,104.73606621608386,72.19269761974729,16566.666666666668
112.48234657749805,104.57285110149489,71.9901898111723,16600.0
112.589331746976,104.58900951814395,71.9593248066627,16633.333333333332
112.50807100472694,104.31937041134466,71.51322538469276,16666.666666666668
112.52994569043548,104.30694961279293,71.55986623755406,16700.0
112.53633209292973,104.31745951925976,71.5332394649502,16733.333333333336
112.50885044755104,104.33724730966507,71.56844010861913,16766.666666666664
112.71839733393922,104.48297104193493,71.69766972152794,16800.0
112.64379616877426,104.55512708150744,71.72430199073494,16833.333333333332
112.66813336015284,104.46324047068285,71.63049381474404,16866.666666666668
112.59986925475212,104.5071407020014,71.57641054007844,16900.0
112.59881323544201,104.49293472794932,71.60733681987328,16933.333333333332
112.95336918377136,104.55282890252217,71.83837006740893,16966.666666666664
112.65767374031981,104.45828723725235,71.64779241677563,17000.0
112.84500997248101,104.54732510288065,71.85917342018227,17033.333333333336
112.79785022562493,104.41991583430513,71.64870962835269,17066.666666666668
112.93332821064492,104.39923671943035,71.57251165411608,17100.0
112.74808692990513,104.21492704826038,71.4663809815325,17133.333333333332
112.75339251096828,104.21107540046934,71.4921436588103,17166.666666666668
112.97600020490756,104.36842374878336,71.64538189641924,17200.0
112.76114682175287,104.25145393327213,71.476048362412,17233.333333333336
112.97843348189129,104.39301265304032,71.58242405614467,17266.666666666664
112.95325546846986,104.40592182777522,71.57853081297066,17300.0
112.94915731776035,104.4105066338815,71.57735259464168,17333.333333333332
112.75571370268341,104.27594123048668,71.43697071727375,17366.666666666668
112.71678910315272,104.29055708601165,71.4646209570452,17400.0
112.88166100491812,104.43233787963293,71.79100542513817,17433.333333333332
112.63104344972099,104.3170744022823,71.6191522128809,17466.666666666664
112.64371733696886,104.34232118962862,71.69320104016764,17500.0
112.82259291182885,104.47538406936064,71.78360290016731,17533.333333333336
112.82867717892816,104.4703899001166,71.74344673731176,17566.666666666668
112.8371698017543,104.5083912183745,71.74899863103991,17600.0
112.82685937970491,104.63846231054904,71.90728194318979,17633.333333333332
112.76683128401531,104.55376940133036,71.76942652690991,17666.666666666668
112.77003124370087,104.55538197943964,71.77408788550696,17700.0
112.80076560361,104.47926278963646,71.67330020787912,17733.333333333336
112.75287735131573,104.34601734016123,71.58657405060083,17766.666666666664
112.9339212678937,104.42124233128834,71.6504345603272,17800.0
112.76431070323989,104.31957612939208,71.625665466714,17833.333333333332
112.93550613496932,104.40071574642128,71.64235685071573,17866.666666666668
112.84803544900365,104.15529429844784,71.57409968751601,17900.0
112.88414447505356,104.22234976022855,71.65253545556575,17933.333333333332
112.70498689000331,104.24275131736374,71.4835679556042,17966.666666666664
112.75175452077251,104.16279903693459,71.4214948004713,18000.0
112.5683348637894,104.06938067544128,71.26374859708194,18033.333333333336
112.79905111723292,104.28277726762579,71.46163656769717,18066.666666666668
112.75908070605041,104.288184879094,71.4553106825834,18100.0
112.76101928374656,104.28616977859402,71.42760942760944,18133.33333333333
112.81851341699827,104.33376696255483,71.45906029996941,18166.666666666668
113.0221556272732,104.477383330772,71.5627529327391,18200.0
112.99469801751957,104.49047179960043,71.60447722965013,18233.333333333336
112.96193842528558,104.4753598688592,71.56362378976488,18266.666666666664
112.75851953882255,104.31037649219469,71.48648097132946,18300.0
112.7585705540251,104.29303132333435,71.53719008264463,18333.33333333333
112.7445923885318,104.28864401591672,71.43564432200795,18366.666666666668
112.74886958288879,104.08611492150587,71.52240512117055,18400.0
112.7995867768595,104.21921232527292,71.46911029486787,18433.33333333333
112.61796982167351,104.14205151653714,71.43484224965705,18466.666666666664
112.81963575145392,104.29231711049893,71.46921232527293,18500.0
112.8137434955617,104.28020099989796,71.46263136414652,18533.333333333336
112.75545862667074,104.32047750229569,71.46640648913377,18566.666666666668
112.96124686235336,104.46923825623688,71.55089390912352,18600.0
112.759361713027,104.23536191793457,71.44203678090263,18633.33333333333
112.74548515457606,104.35049994898479,71.43087440057137,18666.666666666668
112.65013427944908,104.6842585064183,71.95059994579545,18700.0
112.82067583613691,104.82319908964969,72.06562932911142,18733.333333333336
112.82089034304977,104.72622942692841,71.93215843743803,18766.666666666664
112.79181845780208,104.34760170006071,71.3653359643797,18800.0
113.12551543799658,104.76732374534849,71.75636125917731,18833.33333333333
112.92815825716794,104.45150870164015,71.70845123325405,18866.666666666668
112.64321892210856,104.58996361132972,71.89786585365853,18900.0
112.6374409913454,104.5977576711251,71.86051829268294,18933.33333333333
112.48535127781557,104.62438052667379,72.06877368574482,18966.666666666664
112.51136252326378,104.60566656871387,71.98268684494074,19000.0
112.60663295657343,104.51504560777315,71.86838191552647,19033.333333333336
112.4639288844372,104.2501314636284,71.54991861775385,19066.666666666668
112.50151171579745,104.17024439405392,71.42698412698412,19100.0
112.66889293665251,104.32063347500507,71.51707650273225,19133.33333333333
112.65378971868044,104.32336571544222,71.47614349322,19166.666666666668
112.72614349322001,104.32544019429264,71.49127200971462,19200.0
112.66934831005872,104.3386207245497,71.49063954665048,19233.333333333336
112.7221716251771,104.33424408014572,71.48750252985226,19266.666666666664
112.67640659785471,104.3811728395062,71.44183869662012,19300.0
112.67539465695204,104.37550597045131,71.48621230520138,19333.33333333333
112.85342681501804,104.29642330945484,71.56162678453488,19366.666666666668
112.77975918305135,104.32469643855104,71.43418178123252,19400.0
112.69240600158474,104.24062571888659,71.29156762007003,19433.33333333333
112.747878880252,104.34354519128179,71.38617080729563,19466.666666666664
112.95316804407713,104.49844403632281,71.55042852770126,19500.0
112.95911131517192,104.48949086827876,71.55160187735946,19533.333333333336
112.70937057275856,104.46561930783243,71.4730064764218,19566.666666666668
112.73244282533899,104.50963873709776,71.51894859340214,19600.0
112.87268200985622,104.57315957933241,71.5582736371488,19633.33333333333
112.76219388787695,104.4351851851852,71.62403865614249,19666.666666666668
112.69925116373207,104.4582068407205,71.53114248127909,19700.0
112.70028840315727,104.45112325440195,71.52843553936452,19733.333333333336
112.90763603109282,104.56541177666006,71.66140832190214,19766.666666666664
112.76099684349865,104.42200386925975,71.46265655228592,19800.0
113.00482093663912,104.48171104989288,71.64082746658505,19833.33333333333
112.87651770227528,104.48023160901948,71.6259055198449,19866.666666666668
112.91059585756555,104.46714620957044,71.69543924089379,19900.0
113.14340966139031,104.6231750422622,71.79158342298038,19933.33333333333
112.90326677843824,104.62030686379109,71.68665853782451,19966.666666666664
113.121569031726,104.61866962191696,71.56514007370944,20000.0
113.1271553923069,104.80402509947963,71.71625344352617,20033.333333333336
113.13052610009736,104.7642794938784,71.66999641411813,20066.666666666668
113.12983453716512,104.75669791506584,71.66968905281492,20100.0
113.13867117463244,104.75216433584343,71.67975513549511,20133.33333333333
113.11910250499464,104.74294349674707,71.6626709697249,20166.666666666668
113.24627057613169,104.8466306584362,71.70645576131687,20200.0
113.09505148301832,104.74068951385686,71.72019876030942,20233.333333333336
113.03808718815635,104.74558168126629,71.64107883817428,20266.666666666664
113.11172329354149,104.7967299255178,71.73887868584838,20300.0
113.12519130700949,104.78642485460665,71.69441893684319,20333.33333333333
112.96432628947966,104.78626069832613,71.7467747229165,20366.666666666668
113.17355371900827,104.76300887664524,71.72660952963983,20400.0
113.19477260051715,104.94204735587893,71.84946509151752,20433.33333333333
113.22876844293465,104.95715661917559,71.94303604928255,20466.666666666664
113.1800436039142,104.96775338437357,71.90898950463925,20500.0
113.19289661816154,104.97092227348782,71.9141611316737,20533.333333333336
113.23340885370264,104.87274393503552,71.87192933329939,20566.666666666668
113.19847386300259,105.02154844597678,71.9059473710896,20600.0
113.16332517090092,104.89414345474951,71.80856545250485,20633.33333333333
113.15862404589927,104.77388453460377,71.70895445930023,20666.666666666668
113.22162258483314,104.9752310159611,71.85517908510045,20700.0
113.2209607209225,104.97609653030571,71.87584960415447,20733.333333333336
113.17292467479572,105.00575312476136,71.8736858182929,20766.666666666664
113.22647405358332,104.80720762256031,71.72836944828646,20800.0
113.16379796117005,104.78461656677423,71.67079043081809,20833.33333333333
113.1829568157369,104.7795707187132,71.67729624506941,20866.666666666668
112.93464952555858,104.61037139067442,71.53614427099275,20900.0
112.94485256606468,104.61475869809205,71.5315018875625,20933.33333333333
113.27454624137668,104.9407886363058,71.85049512511773,20966.666666666664
113.20275600635212,104.78448849956457,71.58606116489933,21000.0
113.19256185646229,104.78986732237078,71.62960401618771,21033.333333333336
113.13756979662928,104.80490241278623,71.60432354899852,21066.666666666668
113.15603708826393,104.82024486450493,71.66402848214743,21100.0
113.02132028596056,104.83438117933376,71.71601683313898,21133.33333333333
112.92434445464748,104.67187021732477,71.55606570758086,21166.666666666668
112.97668605244364,104.70163758800122,71.65495867768595,21200.0
113.19891399006201,104.85236412069055,71.70892884585831,21233.333333333336
113.37808001639259,104.87541621843144,71.81417447876645,21266.666666666664
113.26410019978485,104.89775113979816,71.73728292607963,21300.0
113.34119084591299,105.04187562049742,71.90703357686532,21333.33333333333
113.3029537802265,104.99081726354453,71.86695235180083,21366.666666666668
113.24647815173405,104.88035961272476,71.7524973105886,21400.0
113.27022181240713,104.86268633779007,71.74337892525998,21433.33333333333
113.19981046052969,104.88079504123765,71.7205573484965,21466.666666666664
113.21246350084525,104.8581527585677,71.76133394805595,21500.0
113.21054249270016,104.85682085958712,71.75190820142411,21533.333333333336
113.17911479944678,104.85589877567749,71.66336253265716,21566.666666666668
113.00604530149984,104.67934394449543,71.6378685848383,21600.0
112.9827058463422,104.68936843179267,71.58190490766249,21633.33333333333
113.04160289766352,104.66493214978064,71.61792164064892,21666.666666666668
113.00188756249365,104.6777879808183,71.61669727578818,21700.0
112.99880114274052,104.67462503826141,71.60529537802265,21733.333333333336
113.0049789158157,104.52619011329573,71.66260224559264,21766.666666666664
112.89625565208557,104.59477721891987,71.581771071483,21800.0
112.96794187877865,104.56965401615606,71.66570136666158,21833.33333333333
112.90768683635623,104.58926484783821,71.6139308032312,21866.666666666668
113.11743699622488,104.75091827364555,71.70939189878584,21900.0
113.08810325476992,104.77410468319559,71.69893378226712,21933.33333333333
113.07458422609938,104.76035608611366,71.67245689215386,21966.666666666664
113.10243852668094,104.73760330578513,71.72893072135496,22000.0
113.04165391286604,104.74558718498112,71.73245077032956,22033.333333333336
113.06512090603,104.71936537088051,71.7233445566779,22066.66666666667
113.05043286716871,104.6537831053737,71.59412939910865,22100.0
113.0173915270734,104.66464320475386,71.56536550381641,22133.33333333333
113.25656984785616,104.86450489216742,71.78984170892885,22166.66666666667
113.17368474975667,104.88233184775369,71.69642948619436,22200.0
113.31919471338558,104.79970288407357,71.88753137646638,22233.333333333336
113.08720723466948,104.76530508560688,71.8027231621196,22266.666666666664
113.09249267006676,105.24993224431469,72.3696996575258,22300.0
113.09010274225737,105.24941483726316,72.39734397713553,22333.33333333333
113.05965384807224,104.96962442017058,71.92216569404958,22366.66666666667
113.0736947539752,104.8783523225241,71.75863277826468,22400.0
113.12947845804987,104.83570168808264,71.61917359536406,22433.33333333333
113.11788082759993,105.07053972827299,71.98082511611734,22466.666666666664
112.81843478260868,104.92183850931677,71.83624844720497,22500.0
112.82827329192548,104.91378881987578,71.83371428571428,22533.333333333336
112.81785185185184,104.90375308641974,71.99199999999998,22566.66666666667
112.85832337714058,104.88903823178015,71.88527976901631,22600.0
112.81414005098215,104.73476783125906,71.81588943869644,22633.33333333333
113.02364207691156,105.00955159858349,72.02274427652252,22666.66666666667
112.92247713300344,104.64285000249912,71.91747888239118,22700.0
113.09279333534077,104.79604536786108,72.04170430593194,22733.333333333336
112.94797178130513,104.66301335348957,71.74930713025951,22766.666666666664
113.01890572179792,104.81184424690123,71.95823212720671,22800.0
112.88528596623834,104.69501133786848,71.76238347190728,22833.33333333333
112.7322091739436,104.54998494429388,71.70706614473552,22866.66666666667
112.71988858777478,104.55302117835993,71.70972598614875,22900.0
112.6384731670446,104.4276895943563,71.57067271352986,22933.33333333333
112.84810767051205,104.59145415907713,71.62244484922081,22966.666666666664
112.64308390022677,104.502343159486,71.4684555303603,23000.0
112.65971277399849,104.51887125220459,71.51642731166541,23033.333333333336
112.81673750252985,104.65510524185386,71.63112224246105,23066.66666666667
112.89243068204814,104.67015786278084,71.57635094110505,23100.0
112.90667375025299,104.66623659178305,71.59390811576606,23133.33333333333
113.02748564751309,104.83541634913375,71.6874460194076,23166.66666666667
113.18475334044606,104.79058070416094,71.79761723314535,23200.0
113.04534369760708,104.7464817355078,71.69369506680891,23233.333333333336
112.91809019904258,104.70272108843537,71.84583018392541,23266.666666666664
112.89405391786345,104.7156462585034,71.78851095993953,23300.0
112.89503653313177,104.70765936004032,71.79702695893172,23333.33333333333
112.93829680020157,104.71080876795162,71.74701436130006,23366.66666666667
112.85777170613235,104.60653207852666,71.60078931390406,23400.0
112.87042096741553,104.576528030763,71.63463873709777,23433.33333333333
113.28491863867359,104.85539756686,71.69146861044095,23466.666666666664
113.05692729766804,104.69974089315652,71.76848041457094,23500.0
113.06127114769087,104.70604074582128,71.75821775135904,23533.333333333336
113.03485241070976,104.72887771173092,71.6738048061779,23566.66666666667
113.10239800843368,104.70738708530205,71.68310216938474,23600.0
113.2919600040812,104.87985919804102,71.70671360065298,23633.33333333333
113.24729305808542,104.82824833029751,71.92147338595427,23666.66666666667
113.07712238987959,104.7515368592186,71.76825179088553,23700.0
113.08090738200475,104.7489203881522,71.76220596453794,23733.333333333336
113.11728395061728,104.78118173042726,71.7520957171163,23766.666666666664
113.06922217141695,104.81130925163843,71.7153381090281,23800.0
113.11603922166336,104.77411979881116,71.76784534877812,23833.33333333333
112.9393088443635,104.61933313094515,71.6941661606962,23866.66666666667
113.01662887377177,104.74464600655077,71.80733182161755,23900.0
113.0076845553036,104.74678760393046,71.79095490047871,23933.33333333333
112.91828577211092,104.58945557579435,71.6388888888889,23966.666666666664
112.94368548876746,104.58042400323822,71.64210180125481,24000.0
112.94844161100993,104.5901892329488,71.66411151588747,24033.333333333336
112.96994535519129,104.59980267152399,71.66428860554544,24066.66666666667
113.14497281918406,104.72085048010972,71.72834425646495,24100.0
113.09716506630085,104.75016511710614,71.68836051414927,24133.33333333333
113.2050754458162,104.76037697505457,71.81689783061525,24166.66666666667
112.96723841327669,104.63360149767254,71.60893543817042,24200.0
113.04331107063351,104.63463873709776,71.65323315118397,24233.333333333336
112.79302091206851,104.47498110355257,71.54371378180902,24266.666666666664
112.7904509952129,104.50896951373144,71.56079617031996,24300.0
112.97702894150984,104.66140457397287,71.61488059097348,24333.33333333333
112.92211553116907,104.56038205558094,71.5263171264543,24366.66666666667
113.04804189435335,104.71554341226471,71.68364197530866,24400.0
113.05590973487148,104.78390002023882,71.68564055859139,24433.33333333333
113.09623557984214,104.75908216960129,71.74769783444647,24466.666666666664
113.03152195911758,104.74623052013763,71.67157458004452,24500.0
113.00156850839912,104.74865917830401,71.6935842946772,24533.333333333336
113.01889799635704,104.71463266545234,71.76226978344465,24566.66666666667
113.02590568710787,104.72733252378063,71.72781319570937,24600.0
113.13212629058806,104.79176018754052,72.13060501770661,24633.33333333333
113.08809315137094,104.87111556278951,72.12037060222862,24666.66666666667
113.32009956753497,105.05234838579905,72.18442622950819,24700.0
113.29235779747026,104.92837486429852,72.07778535181396,24733.333333333336
113.23343179580398,104.94400262566587,72.05978439243607,24766.666666666664
113.27140296397283,104.94576990078012,72.01168926254134,24800.0
113.23267439218357,104.93514100330731,71.949405438158,24833.33333333333
113.0710801568943,104.83423011163632,71.93678970129741,24866.66666666667
113.0690686915418,104.84026450769386,71.86880217238259,24900.0
113.07485165443023,104.83523584431258,71.87073820778437,24933.33333333333
113.18291763049382,104.83319923564316,71.89226088705621,24966.666666666664
112.92318818893708,104.90942191630505,71.88999451344206,25000.0
112.94091974662079,104.93762781186092,71.88493191680381,25033.333333333336
112.89961186928758,104.81111806685864,71.75870790033805,25066.66666666667
113.04151746588205,104.76421685238512,71.82934768999624,25100.0
113.0508826843621,104.7528984599975,71.8629522974834,25133.33333333333
112.78428255632002,104.68050967437472,71.7688830381759,25166.66666666667
112.94503568298485,104.71941905596594,71.83763615875797,25200.0
112.91228245899586,104.70542130962816,71.78680355577814,25233.333333333336
112.92996118692876,104.71436083635908,71.77100287967947,25266.666666666664
112.92084637535996,104.7344434706398,71.77716288969577,25300.0
112.9243771128083,104.72289971203205,71.78500062601728,25333.33333333333
112.92385125829472,104.74556153749843,71.73021159383998,25366.66666666667
112.93331663953924,104.73504444722674,71.7489921121823,25400.0
112.99742080881431,104.699286340303,71.86332790785025,25433.33333333333
112.82854375201806,104.71920717319492,71.83127592459205,25466.666666666664
112.84804152902313,104.7461811678796,71.84632771168128,25500.0
112.86590000248378,104.75157099923004,71.85002856362237,25533.333333333336
112.86185141948783,104.75914656863964,71.79722311914756,25566.66666666667
113.18961045438677,104.95520973614643,72.08287196368896,25600.0
112.84555339418422,104.7196119507207,71.72694398723128,25633.33333333333
112.85924485011721,104.73829118659285,71.75365354880542,25666.66666666667
113.00152748215851,104.8639288844372,71.79436584449729,25700.0
112.99318893201452,104.86996369099786,71.76854889194942,25733.333333333336
112.9938149492926,104.85248528859395,71.79288844372104,25766.666666666664
112.76440221457428,104.72614594244101,71.65674098458777,25800.0
112.86868914985443,104.66616480979624,71.58049784201546,25833.33333333333
113.076669186193,104.82368354749308,71.64976064499874,25866.66666666667
113.06301335348957,104.80700428319477,71.78014613252708,25900.0
113.23046954057884,104.94801153612629,71.88795284355395,25933.33333333333
113.04391534391534,104.82118921642731,71.75379188712522,25966.666666666664
113.08235471243601,104.94863494931246,71.89159891598916,26000.0
113.22204513256426,104.97141266950013,71.79619510220606,26033.333333333336
113.24487276392038,104.81068279163513,71.92877299067777,26066.66666666667
113.10014553849243,104.96497039044463,71.92457091237578,26100.0
112.91258059679113,104.82728545009249,71.81746388763929,26133.33333333333
113.09231544469641,104.8569412950365,71.8207105064248,26166.66666666667
113.04976064499874,104.89024943310658,71.78415217939028,26200.0
113.14179965873731,105.0275519421861,71.8842467128375,26233.333333333336
113.06563366087177,104.91453766691862,71.73350970017637,26266.666666666664
113.26813904068004,105.06066585711395,71.84213721918641,26300.0
113.26844262295084,105.06635802469135,71.8455272212103,26333.33333333333
113.22788909127708,105.0630945152803,71.7280914794576,26366.66666666667
113.27663934426228,105.029396883222,71.77398299939284,26400.0
113.2392987249545,105.00323821088848,71.72368953653107,26433.33333333333
113.17610222991549,104.85475002545569,71.56066082883615,26466.666666666664
113.18093880460238,104.82804704205276,71.50969860503005,26500.0
113.18349018417324,104.99989880590971,71.67000607164542,26533.333333333336
113.40189232948795,104.93366727383122,71.84122647237402,26566.66666666667
113.01655469641271,104.68682976296108,71.49027760172392,26600.0
113.03085308657623,104.71436176955255,71.59416909620991,26633.33333333333
112.98030168589176,104.72364051210545,71.5457979465078,26666.66666666667
113.0845326465687,104.8507549361208,71.74183204564966,26700.0
113.08241175579458,104.85979397061053,71.72365298187144,26733.333333333336
112.98793112154723,104.89933343432814,71.69923748926931,26766.666666666664
113.13971695272508,105.02930844123257,71.88382013449764,26800.0
113.07213553501995,104.9042316820684,71.69954047366559,26833.33333333333
113.07212574470782,104.84474584865002,71.59394093040945,26866.66666666667
113.06288737717308,104.87379692617789,71.66296296296295,26900.0
113.03696145124715,104.89392794154699,71.6238347190728,26933.33333333333
113.0787679046774,104.80507035112178,71.54531626315122,26966.666666666664
113.32878691849407,105.08148054252756,71.84563316009634,27000.0
113.36857193150101,104.90733522770135,72.18869917268087,27033.333333333336
113.11713400309893,104.96096366271804,72.02829009846553,27066.66666666667
113.07241794640169,104.86876442838499,71.89074575930944,27100.0
113.0700341262672,104.86221519622605,71.87742145939978,27133.33333333333
113.068196737868,104.8133111144776,71.71203858001313,27166.66666666667
113.11176352504265,104.85097360232862,71.87724580949515,27200.0
113.07919301415235,104.86138713238985,71.8040499849443,27233.333333333336
113.08845227341162,104.8768443239988,71.84414834889091,27266.666666666664
113.08426176854358,104.88658034728495,71.8090685536485,27300.0
113.07700993676605,104.88620395463215,71.83810097360231,27333.33333333333
113.08614373180772,104.88733313259058,71.89877546923617,27366.66666666667
113.23244282533899,104.91550293462862,71.78772009714633,27400.0
113.23229103420358,104.9153764420158,71.81559906901438,27433.33333333333
113.02239858906526,104.77142857142857,71.70284706475182,27466.666666666664
113.23870853020372,104.80467916476148,71.84941319920743,27500.0
113.27307829091093,104.7949245541838,71.83282528069907,27533.333333333336
112.95971142610372,104.76639739877052,71.60161052685058,27566.66666666667
113.02138901590205,104.72961438805059,71.64880861657268,27600.0
112.97707953855496,104.78420360250963,71.65920360250962,27633.33333333333
112.94860503003768,104.6317330210773,71.51603706343549,27666.66666666667
112.85200364298728,104.71192572353777,71.58234669095326,27700.0
112.83621736490588,104.70236288200769,71.55633980975513,27733.333333333336
112.71555357231395,104.79795726114334,71.82433437453518,27766.666666666664
112.84769984345807,104.55544614452356,71.319017320608,27800.0
113.04494866269488,104.70574217264546,71.39683103054888,27833.33333333333
112.9242286522244,104.494344291269,71.24551835580469,27866.66666666667
112.69899386503069,104.70534969325152,71.69793865030675,27900.0
112.70986503067483,104.69919018404907,71.71403680981595,27933.33333333333
112.58211598052236,104.699818011903,71.70092469627663,27966.666666666664
112.73196104471005,104.62409620776155,72.02033839948847,28000.0
112.60146759879022,104.70010907828846,71.67802072487481,28033.333333333336
112.55879131819992,104.59742134607723,71.60192652329752,28066.66666666667
112.52429311031462,104.59804360812426,71.56966845878135,28100.0
112.51607925129429,104.58719135802471,71.56976802070888,28133.33333333333
112.55760368663591,104.51795732318172,71.45349128431177,28166.66666666667
112.60538807251429,104.54448820885723,71.3432308236126,28200.0
112.62864212493055,104.48237640761499,71.397869009746,28233.333333333336
112.57319598040701,104.50424178154829,71.36724233701965,28266.666666666664
112.82043351502092,104.59878311573077,71.47957916085689,28300.0
112.8142730384079,104.61079984788948,71.46890607174547,28333.33333333333
112.79946761313221,104.60839143110658,71.4463937127646,28366.66666666667
112.95217646908468,104.60930910206272,71.47026046059862,28400.0
112.77726300784029,104.48915589043884,71.27866306893391,28433.33333333333
112.9942470216882,104.41734548416656,71.46370023419203,28466.666666666664
113.02175191064079,104.60767323569256,71.42218132556296,28500.0
112.85439364626819,104.485872110783,71.34265858873842,28533.333333333336
112.8380256593015,104.48004276550249,71.41339985744833,28566.66666666667
112.84535688830057,104.49299969453213,71.39204256185724,28600.0
112.88173343411438,104.70405643738978,71.67397329302091,28633.33333333333
112.77719591175877,104.60706334750051,71.44201578627809,28666.66666666667
112.7240317123668,104.52178962783415,71.41289198606272,28700.0
112.85480093676813,104.55954077996132,71.36852153548519,28733.333333333336
112.65164152617572,104.41934338952973,71.28541006464697,28766.666666666664
112.72201181639143,104.50651416452057,71.39640458516386,28800.0
112.66818158864821,104.49520274705853,71.37347876584356,28833.33333333333
112.70347927081757,104.49025400191893,71.4246073827198,28866.66666666667
112.80803481076704,104.5775905687108,71.48606051406598,28900.0
112.79505666869056,104.59299736895365,71.46058490184174,28933.33333333333
112.99086734693878,104.48721938775508,71.46596938775511,28966.666666666664
112.66882653061224,104.22826530612244,71.14061224489797,29000.0
112.92134038800705,104.65636180398087,71.65114638447972,29033.333333333336
112.82415232664698,104.46107830159862,71.35643009876794,29066.66666666667
112.84856430098768,104.46026372059872,71.3659759698605,29100.0
112.87292536401588,104.45308522553712,71.38170756542105,29133.33333333333
112.87861579414374,104.65521612371657,71.51862086449486,29166.66666666667
112.87183077079727,104.48388656959575,71.40792689135526,29200.0
112.869459623558,104.62651791135401,71.50597045132565,29233.333333333336
112.92263711799231,104.63170410848006,71.49653410240842,29266.666666666664
113.07982516678169,104.736395470695,71.3923012038954,29300.0
112.8981228496256,104.66110099170209,71.43837279902854,29333.33333333333
112.9278155706727,104.80158730158728,71.59264298311919,29366.66666666667
112.87975662314615,104.73433895297251,71.4662441374065,29400.0
112.89601525644886,104.54087624209576,71.72686439827362,29433.33333333333
112.77139827298895,104.48515376458113,71.48356309650053,29466.666666666664
112.7235014896733,104.49548048275514,71.46232894005959,29500.0
112.7171135686512,104.49737413523205,71.44447810937737,29533.333333333336
112.74463013148649,104.62915286560272,71.58064839907658,29566.66666666667
112.71771953744384,104.50234812907135,71.42665252739485,29600.0
112.80159088627924,104.66523637458596,71.56677205660945,29633.33333333333
112.83815115928935,104.65592692963966,71.60822543410619,29666.66666666667
112.94573682233627,104.8575184675097,71.78767997996745,29700.0
112.95339927381997,104.85969700763741,71.77688744209341,29733.333333333336
112.98770502065857,104.86222611744085,71.84259421560034,29766.666666666664
112.93837485914612,104.90136471766621,71.77225491423562,29800.0
112.82999598514506,104.67931345980128,71.66618990263976,29833.33333333333
112.94737907306214,104.74574984820886,71.57695810564664,29866.66666666667
113.16187267424318,104.79840088504477,71.84841094237152,29900.0
113.19431795183162,104.74387775753895,71.77582979154019,29933.33333333333
112.83754094230284,104.59448223733938,71.53716301335348,29966.666666666664
112.85200302343159,104.5994708994709,71.55376669186192,30000.0
112.96630236794172,104.72670006071644,71.57268265533294,30033.333333333336
112.88683127572016,104.7036786108602,71.61362039546322,30066.66666666667
112.66886589693607,104.56812615584543,71.49570150447344,30100.0
112.65042235217672,104.55598040685759,71.46348777927727,30133.33333333333
112.8637458596808,104.71070460704607,71.57166516109605,30166.66666666667
112.84791227541905,104.71549734015859,71.56295794439427,30200.0
113.03431594860166,104.86203073822121,71.622549760645,30233.333333333336
112.82412425976112,104.7367509786209,71.53625915888789,30266.666666666664
112.84984442437022,104.75642376794138,71.57690956539194,30300.0
113.0352481733434,104.8976316452507,71.7074074074074,30333.33333333333
112.99921574580046,104.83067698846388,71.54859846184983,30366.66666666667
113.22596719669464,104.97170401903091,71.92422686866158,30400.0
112.94110709625616,104.8331827762722,71.58167720566095,30433.33333333333
112.9741041854863,104.83355916892502,71.622904747566,30466.666666666664
113.06208257437768,104.87234365513056,71.56461242663428,30500.0
113.00442928418694,104.72635169534672,71.40352306282456,30533.333333333336
112.98765400672028,104.76769168109152,71.34390591589452,30566.66666666667
112.99144689950107,104.74730170043784,71.3746818042969,30600.0
113.03579065268299,104.7124274513797,71.45257611241217,30633.33333333333
113.18983718017536,104.8536155202822,71.46456048871508,30666.66666666667
113.05320232155584,104.70848182466145,71.39242439670096,30700.0
113.05646064555543,104.70690357397413,71.42429487832196,30733.333333333336
113.18536410806942,104.85466349717557,71.43690412289445,30766.666666666664
113.20087927817396,104.86197377501725,71.5482708381259,30800.0
113.21521866932491,104.86920737162279,71.49446617079467,30833.33333333333
113.41990644889195,104.83682232957595,71.68184955141477,30866.66666666667
113.27012243437365,104.85192853308794,71.56097436290673,30900.0
113.25363596861179,104.8710732817013,71.53855788155305,30933.33333333333
113.2564987347596,104.8524141809166,71.61097052884492,30966.666666666664
113.19819543491043,104.91319684073306,71.51798174986581,31000.0
113.26434578125401,104.92094164557932,71.53733098177544,31033.333333333336
113.2094861660079,104.83709768492378,71.41899799804939,31066.66666666667
113.25440278097281,105.015106203512,71.52403956751782,31100.0
113.28067888454365,105.009073946272,71.51877412263886,31133.33333333333
113.22666973391613,105.00779592567032,71.54561255527439,31166.66666666667
113.13107117401483,104.8544954688932,71.52296100193462,31200.0
113.09937888198758,104.84545871092556,71.45934731697383,31233.333333333336
113.1472626998583,104.86265432098766,71.63241246711192,31266.666666666664
113.13406399596876,105.00516502897457,71.71027966742253,31300.0
113.16530612244898,104.97724867724868,71.75643738977072,31333.33333333333
113.2485073871686,104.82230317749443,71.74372596640356,31366.66666666667
113.02708481824659,104.74063231850114,71.47042052744119,31400.0
113.272678475577,104.94867469263605,71.63397489967538,31433.33333333333
113.26383457301331,104.94568412442808,71.6061907317946,31466.666666666664
113.07615266393442,104.74746413934427,71.37384733606558,31500.0
113.142017106201,104.84907341411258,71.53734344771408,31533.333333333336
113.28548424200598,104.98729647521921,71.61260639521508,31566.66666666667
113.32019032921812,104.87736625514404,71.4795781893004,31600.0
113.12418032786886,104.79152151639343,71.35668545081967,31633.33333333333
113.33150720164608,104.93973765432098,71.44881687242798,31666.66666666667
113.1092725409836,104.8344774590164,71.32484631147541,31700.0
113.13660348360656,104.8248206967213,71.32666495901641,31733.333333333336
113.14674692622951,104.82740778688525,71.30189549180328,31766.666666666664
113.3116325435166,105.01863354037266,71.5245507757585,31800.0
113.2845799180328,104.77523053278688,71.49408299180328,31833.33333333333
113.14480020491804,104.78335040983606,71.32830430327868,31866.66666666667
113.19997438524591,104.7921875,71.3247950819672,31900.0
113.18465676229508,104.80048668032784,71.34828381147541,31933.33333333333
113.15427766393442,104.81508709016391,71.34925717213116,31966.666666666664
113.17789446721312,104.79597848360656,71.3515625,32000.0
113.09298951226965,104.88175847673351,71.48078097953365,32033.33333333333
113.2164460310377,105.23850959393127,71.91692696712776,32066.66666666667
113.63152937582731,105.23513389675186,71.5952041543631,32100.0
113.45128660159716,105.10013943465584,71.48145519077195,32133.33333333333
113.44632653061224,105.00102040816328,71.36459183673469,32166.666666666664
113.29941911635277,105.05957200694044,71.50054064928206,32200.000000000004
113.19963012945469,105.06787624331484,71.56682661068626,32233.333333333336
112.8536890064668,105.04325886733294,71.73001175778954,32266.666666666664
112.97373469086617,105.10137228862328,71.8599429442723,32300.0
112.96731592149919,105.11059465840343,71.84179332054498,32333.333333333336
112.96136097183764,104.95432662326323,71.6377061039188,32366.66666666667
112.92918657905216,104.908527479092,71.67331242532855,32400.0
113.01580849141828,104.96627521830774,71.59736023286159,32433.33333333333
113.15951530612246,104.91359693877553,71.52645408163265,32466.66666666667
113.16354591836736,104.89010204081629,71.52650510204082,32500.0
113.1777551020408,104.88716836734692,71.50369897959185,32533.33333333333
113.18785860655736,104.78452868852459,71.41278176229507,32566.66666666667
113.31044238683128,104.92548868312755,71.44912551440329,32600.0
113.2884555785124,104.85369318181816,71.38158574380166,32633.33333333333
113.28907541322313,104.84635847107435,71.3879132231405,32666.666666666664
113.11141975308641,104.73734567901235,71.27497427983539,32700.000000000004
113.29214876033058,104.86474690082643,71.37985537190083,32733.333333333336
113.31141528925622,104.84847623966942,71.3941632231405,32766.666666666664
113.28521090534979,104.6670781893004,71.42857510288066,32800.0
113.23522028688524,104.79748975409836,71.39772028688525,32833.333333333336
113.22201646090537,104.7293209876543,71.37029320987655,32866.666666666664
113.14152800143135,104.82102599493903,71.41292845640672,32900.0
113.1592158065588,104.81550494593971,71.3879303734376,32933.33333333333
113.41687242798349,105.00262345679012,71.46967592592594,32966.66666666667
113.18225308641978,104.74740226337448,71.31882716049383,33000.0
113.18219461697723,104.77082534570455,71.50392352324721,33033.33333333333
113.15421810699587,104.73310185185188,71.38564814814815,33066.66666666667
113.36136363636363,104.85594008264464,71.44088326446281,33100.0
113.36157024793388,104.85005165289257,71.45839359504131,33133.333333333336
113.53153526970956,105.01504149377593,71.51208506224066,33166.666666666664
113.38682851239668,104.81252582644629,71.50767045454545,33200.0
113.34909607438016,104.86229338842976,71.44963842975207,33233.333333333336
113.48123812945947,104.9173040398337,71.70324931985012,33266.666666666664
113.35578512396694,104.88440082644628,71.50005165289257,33300.0
113.48965248962656,105.0492479253112,71.4503112033195,33333.333333333336
113.53923755186722,105.0258039419087,71.49844398340248,33366.666666666664
113.51563796680496,105.05295643153526,71.47927904564315,33400.0
113.5348029045643,105.07240663900411,71.48239107883819,33433.33333333333
113.72505208333334,105.15192708333332,71.53471354166669,33466.66666666667
113.81742738589213,105.2669865145228,71.6820020746888,33500.0
113.83654045643154,105.27199170124479,71.71550829875518,33533.33333333333
113.76466145833334,105.20440104166669,71.57760416666667,33566.66666666667
113.786953125,105.24125,71.588125,33600.0
113.75640625,105.23703125,71.56687500000002,33633.333333333336
113.85220435684649,105.31965767634857,71.66867219917012,33666.666666666664
113.78003112033194,105.3426348547718,71.60765041493775,33700.0
113.77870850622406,105.33991182572613,71.60726141078837,33733.333333333336
113.82259814049587,105.19708161157024,71.82605888429751,33766.666666666664
113.91540456431535,105.29769190871369,71.7811203319502,33800.0
113.87660788381744,105.2941649377593,71.81133298755186,33833.333333333336
113.88205394190872,105.27354771784228,71.74087136929461,33866.666666666664
113.87585580912862,105.2811203319502,71.7554979253112,33900.0
113.71518595041321,105.20250516528921,71.70836776859505,33933.33333333333
113.68734504132229,105.20699896694215,71.6058367768595,33966.66666666667
113.84063796680498,105.30552385892116,71.69154564315353,34000.0
113.6596450617284,105.3644290123457,71.72793209876544,34033.33333333333
113.47089947089948,105.20859852260818,71.69519208649643,34066.66666666667
113.72126370677096,105.48224829384249,71.94440610382641,34100.0
113.7156404161235,105.47994785675944,71.93080796462439,34133.333333333336
113.73100222375584,105.53290903049357,71.89512562942514,34166.666666666664
113.70810009457351,105.5326278659612,71.87204457735858,34200.0
113.79513372003493,105.34762075868795,71.86905189671988,34233.333333333336
113.51071683127992,105.25888402403014,71.80406781386823,34266.666666666664
113.51361877609207,105.24590163934424,71.87850015273393,34300.0
113.53980532786885,105.1894467213115,71.76273053278689,34333.333333333336
113.3064520218025,105.13489669159588,71.77368487767778,34366.666666666664
113.33808673469387,105.08933673469387,71.67413265306122,34400.0
113.50404744934325,105.27209550962223,71.83726198961409,34433.33333333333
113.32679303278688,104.9373719262295,71.47310450819674,34466.66666666667
113.47232510288065,105.08173868312755,71.51558641975309,34500.0
113.45663580246914,105.09218106995884,71.55262345679013,34533.33333333333
113.50444958847736,105.1241512345679,71.48603395061728,34566.66666666667
113.4809670781893,105.11476337448559,71.4968878600823,34600.0
113.51041666666669,105.14277263374485,71.47006172839507,34633.333333333336
113.47353395061728,105.16895576131687,71.51229423868313,34666.666666666664
113.68939549180328,105.32827868852459,71.88629610655738,34700.0
113.70881147540985,105.32730532786886,71.91980020491803,34733.333333333336
113.58652663934427,105.365881147541,71.73867827868851,34766.666666666664
113.57654320987656,105.2438271604938,71.60637860082305,34800.0
113.54013831967212,105.3563012295082,71.71039959016393,34833.333333333336
113.64623463114755,105.3282530737705,71.75950307377049,34866.666666666664
113.39984693877553,105.20632653061224,71.61413265306123,34900.0
113.59976946721312,105.31649590163934,71.687243852459,34933.33333333333
113.38903061224492,105.2072448979592,71.59665816326529,34966.66666666667
113.55519979508196,105.31403688524591,71.74500512295081,35000.0
113.42798469387756,105.20829081632654,71.61464285714284,35033.33333333333
113.55243340163936,105.33352971311476,71.67761270491803,35066.66666666667
113.34041849098871,105.15023928316872,71.61457590876692,35100.0
113.36490778688524,105.08504098360656,71.53936987704918,35133.333333333336
113.36526639344262,105.09349385245899,71.46997950819672,35166.666666666664
113.47688358362213,105.0759337697343,71.61845719419844,35200.0
113.56813524590164,105.3579149590164,71.65322745901639,35233.333333333336
113.55789256624395,105.26051654809773,71.55758325600577,35266.666666666664
113.56029194813264,105.12855552967363,71.40194632088412,35300.0
113.74229429804043,105.30492749103384,71.51827018036279,35333.333333333336
113.55933431684656,105.16520433781088,71.52524781944769,35366.666666666664
113.50200584931541,105.17591945544426,71.398918135466,35400.0
113.58742283950615,105.25895061728392,71.62548868312757,35433.33333333333
113.74744318181818,105.40059400826445,71.68308367768594,35466.66666666667
113.75544466968138,105.23039139248402,71.597978065388,35500.0
113.75988876760746,105.22781849368471,71.60265606320496,35533.33333333333
113.69985446229015,105.23369197983266,71.52572898799312,35566.66666666667
113.72909194864599,105.2172150319663,71.55382296377151,35600.0
113.47099930118799,105.07937986903744,71.44987964904108,35633.333333333336
113.70210846479021,105.13488503969481,71.77835343849881,35666.666666666664
113.57274590163937,105.16887807377049,71.78806352459016,35700.0
113.5671875,105.16787909836066,71.753125,35733.333333333336
113.6013575819672,105.18130122950821,71.76787909836065,35766.666666666664
113.35372448979591,105.08257653061224,71.63602040816326,35800.0
113.42259016814272,105.06620459504556,71.53253754331921,35833.333333333336
113.43342318059298,105.05855474265181,71.5070722628674,35866.666666666664
113.58718326992262,105.09687605145326,71.44063980122682,35900.0
113.60025364288117,105.09555607319409,71.45409840308513,35933.33333333333
113.533024691358,105.19956275720163,71.53477366255144,35966.66666666667
113.63769460769151,105.226466646046,71.57838436952264,36000.0
113.56247438524592,105.27359118852459,71.71032274590164,36033.33333333333
113.62259221311476,105.24664446721312,71.7188780737705,36066.66666666667
113.58524590163937,105.24564549180329,71.67889344262295,36100.0
113.56221823770493,105.26926229508196,71.67512807377051,36133.333333333336
113.5372448979592,105.06038265306124,71.83982142857144,36166.66666666666
113.55356045081969,105.21134733606556,71.77041495901639,36200.0
113.57638319672131,105.17914959016392,71.81068135245901,36233.333333333336
113.5596823770492,105.1657274590164,71.70399590163935,36266.66666666666
113.55279200819672,105.17328381147541,71.81127049180328,36300.0
113.53668032786884,105.19021516393444,71.8360655737705,36333.333333333336
113.53936987704918,105.18857581967212,71.70458504098359,36366.66666666666
113.52975823045269,105.08065843621401,71.5656635802469,36400.0
113.51620370370372,105.07309670781893,71.52029320987654,36433.33333333333
113.55519320858244,105.03180888785359,71.47860858762326,36466.66666666667
113.52412551440331,105.11352880658436,71.52427983539094,36500.0
113.50491255144031,105.12880658436214,71.50864197530863,36533.33333333333
113.5977162594082,105.19847406949171,71.60374780905249,36566.66666666667
113.38029233870968,105.29047379032257,71.8523689516129,36600.0
113.54085181451613,105.19899193548387,71.84823588709678,36633.333333333336
113.46606482762087,105.17446626599943,71.72042145497521,36666.66666666666
113.44028773397051,105.23314914376742,72.00689466348071,36700.0
113.45664078056551,105.23173038630027,72.0159796893668,36733.333333333336
113.42059259259258,105.40120987654319,72.11575308641973,36766.66666666666
113.299975,105.148725,71.87337500000002,36800.0
113.4341717479675,105.115625,71.75899390243903,36833.333333333336
113.55394467213115,105.1126793032787,71.71634221311477,36866.66666666666
113.57361583668421,105.04309722651821,71.56183627178059,36900.0
113.57851324878857,105.03294154036502,71.61073306526445,36933.33333333333
113.56207200664042,104.89541398630422,71.44957460053953,36966.66666666667
113.52075119319365,104.92781178667774,71.3532631251297,37000.0
113.73662872290659,105.12708560736006,71.60611258381412,37033.33333333333
113.5139115355747,104.99399539301706,71.41172968915807,37066.66666666667
113.86093352045324,105.05587608503559,71.67474920733926,37100.0
113.88390768750976,105.05182182026093,71.71638338790997,37133.333333333336
113.61813073512734,105.11233116816167,71.6545777915249,37166.66666666666
113.5743827160494,105.0730452674897,71.63755144032922,37200.0
113.7572898799314,105.19257757679712,71.47816934352096,37233.333333333336
113.59129849626007,105.00188938064552,71.44408209747134,37266.66666666666
113.73197314049587,105.18623450413223,71.64974173553719,37300.0
113.72566141691357,105.14837049742712,71.51647694786631,37333.333333333336
113.55206149545772,104.95294665734914,71.45399487537853,37366.66666666666
113.49570245350836,104.82635307600144,71.26907850184925,37400.0
113.48140334427255,104.82981715893108,71.3609939052977,37433.33333333333
113.32208731593904,104.81790235081374,71.34334797210023,37466.66666666667
113.30719547623993,104.72512450715915,71.28078958290102,37500.0
113.30758456111226,104.73350280141108,71.2753164556962,37533.33333333333
113.31580722141523,104.72595455488691,71.20774538285951,37566.66666666667
113.39326105001038,104.6415490765719,71.46939199003944,37600.0
113.13078667903908,104.6452211568203,71.2692803381792,37633.333333333336
113.13732102095871,104.57856920522931,71.12886490973231,37666.66666666666
113.24941397093296,104.67492316507787,71.16479137365215,37700.0
113.06124195891265,104.55120356920523,71.05659887943555,37733.333333333336
113.21133510444339,104.629994269938,71.11686721883628,37766.66666666666
113.22690685094601,104.71441882133708,71.20306959650077,37800.0
113.37810906643892,104.63990475450993,71.37461500634106,37833.333333333336
113.21981520304372,104.67678649998709,71.28444237389031,37866.66666666666
113.33432091065023,104.73267841363895,71.30742242320288,37900.0
113.32814223436104,104.55341667104365,71.09223173486002,37933.33333333333
113.31671722983576,104.63278062558844,71.14536039334658,37966.66666666667
113.29954304322706,104.49936971479595,71.05827511949155,38000.0
113.294479962576,104.64636935391651,71.25292374863558,38033.33333333333
113.2987498692332,104.22227743487812,71.26791505387592,38066.66666666667
113.14727366255144,104.54843106995884,71.31514917695473,38100.0
113.15133744855969,104.53431069958849,71.28217592592594,38133.333333333336
113.32590392561985,104.72440599173555,71.38370351239669,38166.66666666666
113.31446280991736,104.75883264462809,71.36898243801653,38200.0
113.3295196280992,104.77590392561984,71.37673037190082,38233.333333333336
113.24627469401602,104.55666901537096,71.08011691328062,38266.66666666666
113.134258537346,104.3880399189147,71.18886116742034,38300.0
113.16755028847652,104.38928738499922,71.16466552315609,38333.333333333336
113.14656935062244,104.54755804022051,71.08634210730645,38366.66666666666
113.30987238706646,104.623998538584,71.16480075158537,38400.0
113.26229807667214,104.59959811059788,71.10318640883114,38433.33333333333
113.38545971074379,104.84953512396694,71.38298037190083,38466.66666666667
113.38450413223141,104.82233987603306,71.36033057851239,38500.0
113.37468163625972,104.77776911481888,71.20463641561413,38533.33333333333
113.51485020661156,104.76580578512396,71.7230888429752,38566.66666666667
113.36683299547796,104.71097770154371,71.39700608139717,38600.0
113.21143932364159,104.6632900299,71.35779461800186,38633.333333333336
113.1244403033362,104.55860962290032,71.18668633693092,38666.66666666666
113.38341389885127,104.69457872030772,71.33031862362907,38700.0
113.20710898030724,104.65906278997835,71.35390246417157,38733.333333333336
113.3381714876033,104.82621384297519,71.39958677685951,38766.66666666666
113.36522168511877,104.7595249233328,71.26916679661105,38800.0
113.28181818181818,104.81221590909092,71.36376549586777,38833.333333333336
113.32722107438015,104.79721074380166,71.42427685950413,38866.66666666666
113.1315329218107,104.65625,71.24912551440329,38900.0
113.13407921810699,104.65390946502058,71.24555041152263,38933.33333333333
113.4185768491086,104.81649254119236,71.26256562191381,38966.66666666667
113.38347107438015,104.89912190082643,71.34677169421488,39000.0
113.56554394719059,104.8585945215448,71.42426841311921,39033.33333333333
113.15800916220205,104.67217951704323,71.16843957864224,39066.66666666667
113.22744628856532,104.90764687913656,71.61691782914163,39100.0
113.241956012626,104.8967009469504,71.62776193870279,39133.333333333336
113.18409530597698,104.9042103655432,71.49595255065675,39166.66666666666
113.18829548925771,104.85887384176763,71.55378780164952,39200.0
113.14257713063844,104.88832603604521,71.51494247021688,39233.333333333336
113.47033714183472,104.99989775835186,71.79022569843826,39266.66666666666
113.32661094496841,105.04069217595787,71.60741763157222,39300.0
113.30703166935051,105.04754236638294,71.62985967333793,39333.333333333336
113.37678603379084,105.06032257239988,71.60833780640544,39366.66666666666
113.33108401707436,105.09030493571557,71.58847736625516,39400.0
113.1528866714184,104.90395580898077,71.49697077690662,39433.33333333333
113.33576157247654,105.08204892262863,71.55821383840706,39466.66666666667
113.502262096465,105.06218848247832,71.76302942003424,39500.0
113.52789918973494,105.06029701198784,71.77506837410219,39533.33333333333
113.13682415232664,104.95927095000508,71.526193870278,39566.66666666667
113.38230452674897,105.06766975308642,71.58281893004116,39600.0
113.17561161110407,105.11499556344276,71.65841044492329,39633.333333333336
113.15883590462832,105.10193348026449,71.6099479062312,39666.66666666666
113.16611763522518,105.05260643246912,71.44406165916463,39700.0
113.34883603494421,105.19183962025957,71.57587234257436,39733.333333333336
113.2129403777001,105.02952196544874,71.54293761158749,39766.66666666666
113.15729122136445,104.95843287147636,71.47514270626398,39800.0
113.12254558204769,105.04330294530158,71.5910138248848,39833.333333333336
112.92113533443865,105.11962089530078,71.72089282621069,39866.66666666666
112.98498341190849,105.05345606026592,71.70226246601312,39900.0
113.01436803113072,105.02122776821571,71.70480680485919,39933.33333333333
113.18230447458487,105.03812904043603,71.54060083660794,39966.66666666667
113.30303571428571,104.91267857142857,71.55168367346937,40000.0
113.20187602991508,105.0309798453543,71.57082012929396,40033.33333333333
113.37430555555555,104.99652777777777,71.43060699588476,40066.66666666667
113.3156378600823,105.02726337448559,71.44763374485596,40100.0
113.32109053497942,105.02134773662551,71.45871913580247,40133.333333333336
113.47442946058092,105.01742738589212,71.36309647302905,40166.66666666666
113.47582139408648,104.98971789451709,71.24243847699573,40200.0
113.52423079934236,104.99908661499515,71.29264855554685,40233.333333333336
113.38639128296712,105.02003261122756,71.30701141392966,40266.66666666666
113.57162863070542,104.9974325726141,71.4349325726141,40300.0
113.575,104.98469917012449,71.4704356846473,40333.333333333336
113.54188278008301,104.97761929460579,71.37321058091288,40366.66666666666
113.42642045454544,104.87190082644628,71.41598657024794,40400.0
113.5433596910149,104.9274250371878,71.23447897909652,40433.33333333333
113.69691390041494,104.95539419087136,71.53288381742739,40466.66666666667
113.41851756198344,104.9003873966942,71.42572314049586,40500.0
113.43343621399175,105.01473765432098,71.50465534979423,40533.33333333333
113.58233921161823,104.97253630705393,71.50614626556016,40566.66666666667
113.38840020576131,105.02301954732508,71.53930041152263,40600.0
113.40715020576131,105.03271604938273,71.48590534979424,40633.333333333336
113.52886410788382,104.98425829875521,71.32448132780083,40666.66666666666
113.43181584362141,105.03816872427984,71.48281893004116,40700.0
113.44385288065844,105.03348765432098,71.48395061728395,40733.333333333336
113.36536673553721,104.93959194214877,71.31095041322314,40766.66666666666
113.40180785123968,104.95333161157025,71.31593491735535,40800.0
113.33579545454545,104.92750516528923,71.30477789256199,40833.333333333336
113.24423668032787,104.8529200819672,71.34638831967213,40866.66666666666
113.40594135802469,105.00707304526749,71.36800411522634,40900.0
113.40578703703704,105.00257201646092,71.37402263374486,40933.33333333333
113.38329918032787,104.75058913934427,71.5157018442623,40966.66666666667
113.45100308641977,104.91322016460907,71.57631172839504,41000.0
113.44550619834708,104.81159607438015,71.42626549586777,41033.33333333333
113.41911157024794,104.82771177685949,71.42249483471075,41066.66666666667
113.29967006907928,104.74487060521706,71.33428703990103,41100.0
113.28053278688525,104.8122950819672,71.44267418032787,41133.333333333336
113.45707304526749,104.978420781893,71.48999485596707,41166.66666666666
113.22579405737707,104.82904713114756,71.3827356557377,41200.0
113.22584528688525,104.82730532786886,71.36636782786886,41233.333333333336
113.46489116649843,104.97608509977483,71.36410694412092,41266.66666666666
113.46103395061728,105.0443158436214,71.50887345679013,41300.0
113.24021516393442,104.90238217213114,71.40968237704921,41333.333333333336
113.43282541322313,104.94364669421488,71.41451446280992,41366.66666666666
113.43569214876032,104.96596074380163,71.37257231404959,41400.0
113.58378099173555,104.92210743801651,71.51967975206611,41433.33333333333
113.4517303719008,104.87590392561985,71.45333161157025,41466.66666666667
113.69049586776859,105.09067665289257,71.62104855371899,41500.0
113.64743257261412,104.97344398340248,71.49203838174273,41533.33333333333
113.47206790123457,104.99624485596708,71.54814814814813,41566.66666666667
113.46913739669421,104.87040289256198,71.4494576446281,41600.0
113.44408574380164,104.8921229338843,71.44263946280992,41633.333333333336
113.5253406708595,104.7358752620545,71.19148322851153,41666.66666666666
113.40207468879669,104.8071836099585,71.29626556016599,41700.0
113.35024400427986,104.67084214097444,71.16827161460374,41733.333333333336
113.53094863731657,104.77599580712787,71.18498427672955,41766.66666666666
113.58106944335708,104.89164644171301,71.26811764398863,41800.0
113.67945405673426,104.99804274641822,71.37712362013622,41833.333333333336
113.62874737945492,104.8898322851153,71.22851153039831,41866.66666666666
113.75801886792452,104.87201257861635,71.3229035639413,41900.0
113.66022142523,104.92432039087272,71.43435209730234,41933.33333333333
113.53491735537192,104.98595041322314,71.38375516528927,41966.66666666667
113.54444731404959,104.99261363636364,71.40643078512394,42000.0
113.48295454545456,105.00309917355372,71.37233987603305,42033.33333333333
113.63685165975107,105.05142634854772,71.46006224066392,42066.66666666667
113.61817897126751,105.0041754743078,71.25632192906913,42100.0
113.60332994076046,105.00514105274144,71.26670842140975,42133.333333333336
113.43320858672487,104.92910234419668,71.27766515931181,42166.66666666666
113.42629554550652,104.93097354332346,71.18732782369145,42200.0
113.49207128099172,104.91939566115705,71.40808367768595,42233.333333333336
113.43773243801651,104.93406508264464,71.38765495867769,42266.66666666666
113.4375,104.91854338842975,71.47489669421488,42300.0
113.44684917355372,104.90671487603304,71.47882231404958,42333.333333333336
113.42435433884295,104.91252582644628,71.40201446280993,42366.66666666666
113.60028409090908,104.86009814049584,71.53006198347106,42400.0
113.53762966804979,105.03184647302903,71.35197095435684,42433.33333333333
113.61869813278007,105.01421161825728,71.44011929460581,42466.66666666667
113.513828125,104.86216145833336,71.24070312500002,42500.0
113.50677083333332,104.87369791666669,71.22187500000003,42533.33333333333
113.65014744643648,105.01918108510138,71.3626399436311,42566.66666666667
113.56540456431534,105.05150414937759,71.35884336099585,42600.0
113.56989583333332,104.92966145833334,71.26934895833334,42633.333333333336
113.52713541666668,104.92723958333336,71.20473958333334,42666.66666666666
113.60865367050287,104.94728463686421,71.26929199613768,42700.0
113.5843291404612,104.84562368972746,71.11339098532494,42733.333333333336
113.53275681341718,104.82678197064988,71.058857442348,42766.66666666666
113.66747566481381,104.96881442626372,71.30342649860383,42800.0
113.53453878406708,104.8025681341719,71.07670335429769,42833.333333333336
113.71627652078602,104.94389206398914,71.39466061222892,42866.66666666666
113.6722022974167,105.029653308384,71.31381568688602,42900.0
113.66448360101877,105.02097302354592,71.31186652112895,42933.33333333333
113.72696280991735,105.17014462809915,71.53310950413223,42966.66666666667
113.668693799054,105.05392691927857,71.32519881490721,43000.0
113.71014979338842,105.18383264462808,71.52530991735537,43033.33333333333
113.51790123456793,105.14395576131687,71.44925411522634,43066.66666666667
113.70111053719008,105.22197830578513,71.5521694214876,43100.0
113.70242768595041,105.21967975206611,71.5771694214876,43133.333333333336
113.67280475206611,105.23923037190079,71.4929493801653,43166.66666666666
113.70568759303936,105.32449566244031,71.60199681741184,43200.0
113.6768595041322,105.24568698347107,71.48553719008264,43233.333333333336
113.58684895833332,104.98075520833332,71.18315104166669,43266.66666666666
113.569921875,104.96510416666668,71.17554687500002,43300.0
113.55739583333336,104.976953125,71.12505208333334,43333.333333333336
113.86893153526972,105.07235477178423,71.56073651452282,43366.66666666666
113.75885847107438,105.19795971074379,71.5353305785124,43400.0
113.59161522633744,105.13446502057613,71.53143004115226,43433.33333333333
113.71559917355371,105.19266528925621,71.5684659090909,43466.66666666667
113.60336934156378,105.1346450617284,71.5576646090535,43500.0
113.5902665950975,105.19216317767042,71.65605909567263,43533.33333333333
113.7384555785124,105.24372417355372,71.56831095041322,43566.66666666667
113.69992252066116,105.27205578512395,71.56908574380166,43600.0
113.55501543209877,105.1763631687243,71.54845679012345,43633.333333333336
113.60835905349795,105.17510288065843,71.56774691358025,43666.66666666666
113.73476239669421,105.30054235537192,71.57236570247933,43700.0
113.73910123966942,105.29966425619837,71.59369834710743,43733.333333333336
113.70661307053942,105.21237033195021,71.43418049792531,43766.66666666666
113.67922717842323,105.21465248962656,71.42935684647304,43800.0
113.8873708677686,105.30723140495869,71.71856921487603,43833.333333333336
113.58783436213993,105.23701131687244,71.52502572016459,43866.66666666666
113.59338991769549,105.21383744855969,71.55164609053497,43900.0
113.5532541322314,105.10488119834707,71.41846590909091,43933.33333333333
113.67782676348548,105.21021784232364,71.42020228215767,43966.66666666667
113.70679460580912,105.21470435684648,71.40889522821575,44000.0
113.65342323651451,105.22927904564315,71.37435165975104,44033.33333333333
113.60128600823043,105.25540123456793,71.51869855967078,44066.66666666667
113.5889403292181,105.2552983539095,71.41597222222222,44100.0
113.59220679012344,105.25095164609051,71.4190329218107,44133.33333333334
113.59223251028808,105.28955761316871,71.51967592592592,44166.66666666666
113.5889403292181,105.27232510288064,71.53248456790124,44200.0
113.60779958677686,105.20482954545454,71.43073347107438,44233.33333333334
113.62777777777778,105.34696502057614,71.53199588477365,44266.66666666666
113.60452416077852,105.27709190672155,71.45800657400937,44300.0
113.60889820638249,105.28948934958721,71.43002821130005,44333.33333333334
113.45196353436184,105.66830294530158,71.92869665397716,44366.66666666666
113.54570372419344,105.40971156989464,71.70817512007443,44400.0
113.69182405881607,105.48104956268223,71.62601090125492,44433.33333333333
113.54928546179873,105.32853608039188,71.5575670352977,44466.66666666667
113.51499772761706,105.29636923698428,71.51906276826745,44500.0
113.52093117204464,105.290082310761,71.53037418572944,44533.33333333333
113.63876685350704,105.43440387820029,71.62596576276322,44566.66666666667
113.42363241787024,105.51772306617777,71.75160268402804,44600.0
113.56025846523742,105.56348928070528,71.84902825085153,44633.33333333334
113.49648878184814,105.39710989986055,71.5622765876537,44666.66666666666
113.68917181069959,105.3543209876543,71.42006172839504,44700.0
113.66752077024614,105.22996091829077,71.29143049408599,44733.33333333334
113.584931542304,105.27975774516656,71.33788855242383,44766.66666666666
113.75603695939124,105.27962833553327,71.45847244868908,44800.0
113.62466029971272,105.29715039987578,71.43018350285996,44833.33333333334
113.83918083060448,105.35591766723844,71.51871199126774,44866.66666666666
113.79934236279652,105.27367624416084,71.34682533469037,44900.0
113.74801012552521,105.28977791696023,71.30324382160286,44933.33333333333
113.76893969049296,105.30261750045669,71.36230068634359,44966.66666666667
113.56694734653568,105.26703570871668,71.27108997349134,45000.0
113.76606905190636,105.3363866489209,71.32219003627443,45033.33333333333
113.71288394791095,105.34703410840577,71.2817662256322,45066.66666666667
113.73824995433071,105.29627599885174,71.30945483963569,45100.0
113.59956338687044,105.20440251572329,71.30419980248453,45133.33333333334
113.55800717292999,105.22288060710017,71.24177452050523,45166.66666666666
113.60148656375073,105.20918446904724,71.27155777327305,45200.0
113.63124382764177,105.19177192161754,71.26825718592444,45233.33333333334
113.75640625812152,105.1549196943708,71.42216331410157,45266.66666666666
113.6168459899163,105.19504652008939,71.22353032901918,45300.0
113.56346483704976,105.23727844482565,71.22360829564947,45333.33333333334
113.62817714018401,105.19374707625136,71.22800041582202,45366.66666666666
113.57625136441605,105.21869639794168,71.23195072508966,45400.0
113.60426737356413,105.21199126773745,71.26604813139977,45433.33333333333
113.61383128021208,105.21916419772334,71.25219606008629,45466.66666666667
113.66510733406099,105.25939497894902,71.3084619782733,45500.0
113.7041166380789,105.25996673423776,71.35898435469619,45533.33333333333
113.69283746556472,105.23356203544884,71.31701231872759,45566.66666666667
113.68171422631114,105.25170227142785,71.32525079266074,45600.0
113.61736576745152,105.25690004677998,71.33775144238267,45633.33333333334
113.68114247102241,105.20549404854721,71.30154893705495,45666.66666666666
113.61728780082123,105.24107282083268,71.21420032226206,45700.0
113.55479129616067,105.10327963176063,71.08146772674966,45733.33333333334
113.741800509382,105.13269920474038,71.44791829097147,45766.66666666666
113.81549622902477,105.23064276207623,71.38142957801612,45800.0
113.66636154409456,105.02432262788994,71.17496600062769,45833.33333333334
113.63343445967152,105.04022387279005,71.1165916936918,45866.66666666666
113.69983784914741,105.02769641175855,71.16547232974159,45900.0
113.67886968853406,104.91254792793741,71.08550869268345,45933.33333333333
113.83045886075949,104.99694092827005,71.09770569620254,45966.66666666667
113.78367400419286,105.07562893081759,71.24255765199163,46000.0
113.77334905660378,105.12224842767296,71.20005241090145,46033.33333333333
113.75237995606236,105.11073334030756,71.17922899884925,46066.66666666667
113.80619725738396,105.08887130801688,71.1323575949367,46100.0
113.6561531593046,105.01570460633437,71.10964336362204,46133.33333333334
113.65429682402988,105.0785772071296,71.2171246640048,46166.66666666666
113.83752637130802,105.1049578059072,71.10258438818565,46200.0
113.75852599644314,105.17326603201172,71.28619625483837,46233.33333333334
113.76244725738395,105.12882383966243,71.15337552742616,46266.66666666666
113.84001572327044,105.26244758909851,71.321357442348,46300.0
113.71087450090029,105.16495733187193,71.32341658185234,46333.33333333334
113.60764746047589,105.02555281264772,71.12776406323862,46366.66666666666
113.63973948211563,105.01628236777141,71.12960239508378,46400.0
113.57318823560114,105.09470497664343,71.23027740807431,46433.33333333333
113.65462997006144,104.994248647513,71.17645359525186,46466.66666666667
113.60896055465099,105.03477073375704,71.14404643101004,46500.0
113.59554073218132,105.03059509428014,71.12936603813226,46533.33333333333
113.6699406481433,105.01102999107096,71.11187562371973,46566.66666666667
113.61618257261412,105.04065339566156,71.12668732601503,46600.0
113.43864420964536,104.86342713672977,70.98020190396484,46633.33333333334
113.43466889842036,104.90229103462705,70.97361125640758,46666.66666666666
113.80792058406428,105.0547822889858,71.19696412626713,46700.0
113.82373023793266,105.05283890960659,71.22674510215873,46733.33333333334
113.69473186616943,105.0861915016545,71.04514417774044,46766.66666666666
113.73950837754083,105.09357109091863,71.12243290088766,46800.0
113.6793424024371,105.12505908923788,71.0804401491675,46833.33333333334
113.72923998109144,105.10751615105836,71.18202111455435,46866.66666666666
113.7445769210568,105.0839592415568,71.15399968485741,46900.0
113.72958138557699,105.07957350701193,71.14165659961131,46933.33333333333
113.65996113241242,105.08219969536215,71.15872682388782,46966.66666666667
113.41332775394916,104.94583638455906,71.0176535202427,47000.0
113.71207762318234,105.18958573072494,71.22672350664295,47033.33333333333
113.6574399915962,105.08884395188824,71.08779347654814,47066.66666666667
113.82842827004221,105.13251582278481,71.16453059071729,47100.0
113.86133966244726,105.1098364978903,71.18752637130801,47133.33333333334
113.7945147679325,105.13910864978905,71.09164029535864,47166.66666666666
113.90822784810128,105.12188818565402,71.26410864978905,47200.0
113.83355218236252,105.28990493198171,71.18903303744945,47233.33333333334
113.83386075949369,105.1910864978903,71.14422468354431,47266.66666666666
113.80345464135021,105.20994198312236,71.09124472573839,47300.0
113.79902426160338,105.20851793248946,71.07721518987341,47333.33333333334
113.71627562099465,105.06260261638685,70.90662570838407,47366.66666666666
113.6646893702664,105.09014353053335,70.86875695143266,47400.0
113.70986706212595,105.10415232244054,70.93289550341613,47433.33333333333
113.7034055399608,105.10306657486362,70.90704941475558,47466.66666666667
113.7607858649789,105.20414029535866,71.00590717299578,47500.0
113.75440919442828,105.0884487050474,70.95561675758701,47533.33333333333
113.93363605522065,105.48265873326548,71.40139356455022,47566.66666666667
113.78301687763714,105.1473892405063,71.07286392405064,47600.0
113.77591719077569,105.29858490566038,71.19014675052411,47633.33333333334
113.94250524109016,105.21889412997903,71.38139412997903,47666.66666666666
113.80753138075312,105.12115470645507,71.13325965106179,47700.0
113.82268887660852,105.10854977500591,71.1596010631299,47733.33333333334
113.8708071278826,105.21160901467505,71.24554507337525,47766.66666666666
113.82219601677149,105.23377882599578,71.17971698113206,47800.0
113.86729559748429,105.23736897274631,71.291142557652,47833.33333333334
113.91025339909704,105.42187948537277,71.42425428638532,47866.66666666666
113.92241446801849,105.43119601242205,71.4617030715833,47900.0
113.90876588637494,105.43242255799994,71.47222004749601,47933.33333333333
113.77562893081759,105.29661949685531,71.1809748427673,47966.66666666667
113.935384535087,105.47501239593934,71.40115869412041,48000.0
113.79150943396229,105.33660901467505,71.12410901467504,48033.33333333333
113.81024633123691,105.34116876310273,71.24169287211741,48066.66666666667
113.81003668763105,105.36472746331236,71.18584905660377,48100.0
113.79056603773584,105.37447589098532,71.16362683438155,48133.33333333334
113.94866352201255,105.30366876310272,71.33183962264151,48166.66666666666
113.90584229949582,105.56037216071522,71.58248869483863,48200.0
113.93564550223127,105.45022051723689,71.40421200970799,48233.33333333334
113.98139196423931,105.59155881282813,71.52453349966214,48266.66666666666
113.960515671077,105.49805579477542,71.44429656306271,48300.0
113.98849134893915,105.4845898901328,71.46076358986403,48333.33333333334
113.69716836734696,105.63311224489796,71.65984693877552,48366.66666666666
113.68070026046884,105.6879132438389,71.87605189340813,48400.0
113.8344023323615,105.6564076562302,71.64629230574216,48433.33333333333
113.9059196349347,105.68954240081123,71.70604639371277,48466.66666666667
113.83136012168842,105.66976803143619,71.61242236024844,48500.0
113.81391811382936,105.68535936113577,71.60413233616427,48533.33333333333
113.80066151593194,105.74097358986013,71.71963843862041,48566.66666666667
113.73676666582844,105.77534136344204,71.79872758820126,48600.0
113.9708125031561,105.88526990859972,72.06140483765087,48633.33333333334
113.91244897959184,105.92293367346943,71.87594387755101,48666.66666666666
114.04732574458131,105.66305421279692,71.5590467280004,48700.0
114.06866261240192,105.66084515827228,71.57482197619419,48733.33333333334
113.8464098532495,105.35057651991613,71.19892557651991,48766.66666666666
113.83295176442724,105.204205152496,71.15425909844478,48800.0
113.81006289308176,105.36187106918236,71.20296121593292,48833.33333333334
113.78406708595388,105.32615303983229,71.3073637316562,48866.66666666666
113.75914570230609,105.34441823899373,71.24198113207547,48900.0
113.72788259958072,105.339072327044,71.26378406708595,48933.33333333333
113.78490566037735,105.35178197064992,71.23503668763101,48966.66666666667
113.77099056603771,105.33860062893079,71.23372641509435,49000.0
113.75003289387121,105.24567774532248,71.18975816425882,49033.33333333333
113.83922955974842,105.42801362683436,71.3095387840671,49066.66666666667
113.92902918277632,105.1106138446057,71.12528467771834,49100.0
113.96755998093323,105.09610190138235,71.19429585297391,49133.33333333334
113.87471382332045,105.26715086445091,71.27796636930606,49166.66666666666
113.83893861553943,105.15150150945395,71.11628091732429,49200.0
113.76656427096022,105.17665907526084,71.06813728086436,49233.33333333334
113.98705450733752,105.45398322851152,71.46270964360586,49266.66666666666
113.83508328728192,105.29367648219784,71.18152153890686,49300.0
113.82666245625114,105.29465014078579,71.20244204099893,49333.33333333334
113.91808176100628,105.43482704402516,71.40461215932913,49366.66666666666
113.95088598345468,105.5287977243665,71.48654714371459,49400.0
113.96897100655028,105.50899031811895,71.51922023017302,49433.33333333333
113.95360004175474,105.52530076463371,71.49695973276964,49466.66666666667
113.98924815365746,105.49270596831859,71.50499752081213,49500.0
113.99230146924502,105.49074871473681,71.52323912419426,49533.33333333333
113.94647563871708,105.50290978365824,71.459406560714,49566.66666666667
113.99603445559116,105.33827932139292,71.50966437312884,49600.0
113.74042688416927,105.06196705682964,71.02780573062867,49633.33333333334
113.83438818565399,105.25925632911392,71.24752109704642,49666.66666666666
113.8229694092827,105.25487869198312,71.23444092827005,49700.0
113.84343354430379,105.24564873417722,71.24949894514769,49733.33333333334
113.7485905754707,105.01904052760344,70.92612488033188,49766.66666666666
113.82768987341773,105.26392405063291,71.27434071729958,49800.0
113.8679588607595,105.28905590717301,71.24008438818565,49833.33333333334
113.82423523206751,105.29316983122364,71.21542721518988,49866.66666666666
113.69821513691014,105.11291774800064,70.98932789576823,49900.0
113.71773211164664,105.10913087230549,70.97759652560775,49933.33333333333
113.8103111814346,105.25495780590721,71.17357594936709,49966.66666666667
113.74228475781986,105.21430065906479,71.30507898315723,50000.0
113.72790040799246,105.21874673082958,71.31645569620254,50033.33333333333
113.88946930713655,105.33091636779459,71.63267321586359,50066.66666666667
113.77463692946058,105.26467842323652,71.55964730290455,50100.0
113.88042452830187,105.20275157232705,71.41509433962264,50133.33333333334
113.87680785123966,105.35206611570247,71.70834194214876,50166.66666666666
113.81911157024791,105.3646694214876,71.62939049586777,50200.0
113.77782717857515,105.2106391881996,71.40867245527775,50233.33333333334
113.7261742860132,105.2196882519092,71.34093524427244,50266.66666666666
113.79166230777278,105.2121560832723,71.33337692227221,50300.0
113.8174495240088,105.20446699445549,71.34362904069464,50333.33333333334
113.81074899942823,105.36067363168564,71.463719528042,50366.66666666666
113.92378691983124,105.19269514767932,71.30300632911394,50400.0
113.90268987341771,105.20857067510548,71.25648734177216,50433.33333333333
113.88594409282699,105.2018459915612,71.32600210970466,50466.66666666667
113.91060454855824,105.30077735175169,71.3169809338726,50500.0
113.77577988454,105.01210211323551,71.03940469254806,50533.33333333333
113.89148969557483,105.14698190187258,71.41706768490428,50566.66666666667
113.78198556334343,105.1369128569934,71.40584789203892,50600.0
113.95236094332688,105.19940648143286,71.50170702242765,50633.33333333334
113.77651951040905,105.12598075112459,71.40051260592112,50666.66666666666
113.773433413537,105.18003975311224,71.36680092059841,50700.0
113.77377340726021,105.16395543466888,71.39298043728424,50733.33333333334
113.84744198312237,105.08024789029535,71.21273734177215,50766.66666666666
113.76443665655405,105.11567632597551,71.34695051783659,50800.0
113.72606967255987,105.12135160581651,71.33565226488126,50833.33333333334
113.87133438818566,105.10005274261604,71.22457805907173,50866.66666666666
113.74259859817973,105.13929281305576,71.27131499110786,50900.0
113.74288628517628,105.13361753321476,71.26135055968197,50933.33333333333
113.76427333368349,105.03739692210726,71.22713903041127,50966.66666666667
113.7320762645097,105.03718682703924,71.2048164294343,51000.0
113.97703734700279,105.09851971963595,71.50196150224919,51033.33333333333
113.57055789967184,104.95332604052716,71.19630671459082,51066.66666666667
113.60855862895245,104.94071990415169,71.20565713392719,51100.0
113.58894618950876,104.94608532583216,71.19010782934835,51133.33333333334
113.50875136740116,104.96882325363336,71.11733604208992,51166.66666666666
113.54039693702141,104.933921966974,71.16893264572589,51200.0
113.5335729541074,104.93946970880869,71.15161223107779,51233.33333333334
113.70739009401754,104.9493408267241,71.23809023583172,51266.66666666666
113.67217290824098,104.95446189400705,71.11681285781816,51300.0
113.47436970394392,104.78792237681766,71.02000732294174,51333.33333333334
113.58298171589311,104.8549773402094,71.22779600979321,51366.66666666666
113.49814311120407,104.75588450674756,71.10589496809291,51400.0
113.55425326873993,104.88485179976038,71.2089128509663,51433.33333333333
113.50976715111736,104.94254310569359,71.21729957805907,51466.66666666667
113.94201376122696,104.90929145438312,71.37948421660802,51500.0
113.97822889857662,104.90703293240192,71.3769105520248,51533.33333333333
113.86946856365728,105.08133695993305,71.36729783450151,51566.66666666667
113.84807500393929,104.97599663847893,71.33349965859551,51600.0
113.85942567214144,105.10273041113086,71.35471806674339,51633.33333333334
113.94016350210971,105.09541139240507,71.29839135021098,51666.66666666666
113.99156993539577,105.16825988759916,71.36706234571145,51700.0
113.97631178108094,105.15709858711071,71.39324544356322,51733.33333333334
113.85375039230046,105.03352861177947,71.4181399728005,51766.66666666666
113.79568992572443,105.05277748718485,71.31425881368344,51800.0
113.92929852320677,105.0213871308017,71.30292721518988,51833.33333333334
113.86650843881857,105.02721518987343,71.24994725738397,51866.66666666666
113.82507911392405,104.9306434599156,71.10814873417722,51900.0
113.82354957805909,104.93130274261604,71.09269514767931,51933.33333333333
113.85305907172994,104.97154535864979,71.14013713080169,51966.66666666667
114.17497847021059,105.12382890994024,71.78133562984421,52000.0
113.90719936708858,104.98934599156118,71.28270042194093,52033.33333333333
113.932832278481,105.0242088607595,71.25226793248945,52066.66666666667
113.96953621513737,105.15610063553758,71.32772204422501,52100.0
113.93572379237452,105.21292309298259,71.48607740285497,52133.33333333334
113.9529124428804,105.16639529387051,71.35663637796101,52166.66666666666
113.93640230694956,105.21863827344136,71.42897779169603,52200.0
114.01628434980036,105.27915655418984,71.51016467026801,52233.33333333334
113.87811844863731,105.11341719077568,71.20317085953879,52266.66666666666
113.7558748453988,104.87589800268414,70.94350148680297,52300.0
113.76979553169652,104.86784558301098,70.96231678113732,52333.33333333334
113.847421875,105.15916666666668,71.28513020833334,52366.66666666666
113.88373463114756,105.48847336065573,71.86511270491803,52400.0
113.97057326137869,105.58380002036448,71.81486101211689,52433.33333333333
114.27239731104466,105.46151879968306,71.98082969097463,52466.66666666667
113.88109662967108,105.3575501476428,71.64122798085734,52500.0
114.06620146716764,105.49536078521584,71.71528257035503,52533.33333333333
113.94118392698694,105.40324502471796,71.73033337558626,52566.66666666667
113.99650145772594,105.60200278869313,71.84076562301941,52600.0
113.86857825567505,105.79111907606531,72.18657905217044,52633.33333333334
113.62615680111752,105.53383721220284,71.89745316670408,52666.66666666666
113.84790183305559,105.6277331717417,72.00578195222947,52700.0
113.85676412664749,105.62992980861486,72.0,52733.33333333334
114.03461734693876,105.73566326530613,71.97423469387755,52766.66666666666
113.9888831967213,105.6047899590164,71.83916495901639,52800.0
114.01040816326531,105.7181887755102,71.97025510204081,52833.33333333334
113.6607797650228,105.60617625782629,72.04934021801492,52866.66666666666
113.8877170744074,105.4784890353657,71.78818608188617,52900.0
113.89271137026242,105.48703257700596,71.77751299277476,52933.33333333333
114.20365065280771,105.36623146152873,72.0924578527063,52966.66666666667
114.02466725820764,105.4223348966916,71.75155279503106,53000.0
113.99300611018532,105.48432055749129,71.81480078775944,53033.33333333333
113.89898659692707,105.53574571881208,71.82860160434531,53066.66666666667
113.9178577664696,105.77961535583329,72.21923719723615,53100.0
113.90473696026342,105.78003941230764,72.23098605602534,53133.33333333334
113.8837044534413,105.62884615384615,71.89415485829959,53166.66666666666
114.00892857142857,105.60433673469387,71.84770408163266,53200.0
113.965370299063,105.5650622513156,71.75179052753177,53233.33333333334
114.04024639594172,105.56189662758496,71.59921836581515,53266.66666666666
113.90894856337587,105.25478222291812,71.22312690832224,53300.0
114.00317064296482,105.41868080461563,71.4692811476688,53333.33333333334
113.98361126334194,105.23737571439756,71.35721182703098,53366.66666666666
113.93350557164852,105.2583835695086,71.31809285210991,53400.0
114.19890915733707,105.16341762572092,71.63268874448707,53433.33333333333
114.03173241852488,105.30043141535424,71.56078798274339,53466.66666666667
113.81121593291405,104.96029874213836,71.18215408805031,53500.0
113.84897798742138,104.9375786163522,71.18747379454926,53533.33333333333
113.97392938229076,105.21634176257209,71.39583496437798,53566.66666666667
113.9708760667032,105.22054333359428,71.3955218038049,53600.0
113.94172603669195,105.24444792400637,71.37881990657375,53633.33333333334
113.90513844307002,105.25491270649023,71.3350557164853,53666.66666666666
113.99480222464788,105.4402775612038,71.49168355943657,53700.0
113.90602573136042,105.26952686656747,71.29765912471619,53733.33333333334
113.93520185808607,105.2759205616013,71.27571178788591,53766.66666666666
113.8841566846734,105.28920378924292,71.31274302565306,53800.0
113.8747641509434,105.19625262054508,71.23388364779873,53833.33333333334
113.91679769392029,105.18155136268344,71.17541928721174,53866.66666666666
114.10049790356392,105.18005765199159,71.39483752620545,53900.0
114.10649895178196,105.1950471698113,71.40932914046121,53933.33333333333
114.00362744330488,105.4043685899945,71.44763694250894,53966.66666666667
113.94997379454928,105.20725890985321,71.33283542976939,54000.0
113.90372117400422,105.21449161425579,71.24156184486372,54033.33333333333
113.92235324947588,105.16312893081758,71.34900419287213,54066.66666666667
113.92295597484276,105.172536687631,71.26210691823898,54100.0
113.897929769392,105.17921907756813,71.2361111111111,54133.33333333334
113.88098628691984,105.0488924050633,71.12099156118144,54166.66666666666
113.88647151898735,105.07093881856541,71.03024789029536,54200.0
113.87196729957806,105.0756065400844,71.0563818565401,54233.33333333334
113.66492926284435,104.73883097542814,70.69947346027018,54266.66666666666
113.697452398681,104.73683650675459,70.7619934049569,54300.0
113.69899478778852,104.74906924795229,70.7900489309648,54333.33333333334
113.71415708913723,104.84833960065674,70.82646575922884,54366.66666666666
113.97301520046608,104.96742757269213,71.15271966527195,54400.0
113.80249986759176,104.84995498119802,70.87238493723851,54433.33333333333
113.80925268788731,104.88957152693185,70.86396377310523,54466.66666666667
113.7956940839998,104.896403792172,70.8251946401144,54500.0
113.91039029535864,105.13246308016878,71.05100210970464,54533.33333333333
113.92328266511309,105.06276150627615,71.04067581166251,54566.66666666667
113.89386155394313,105.0622318733118,71.02364811185848,54600.0
113.75651526433356,104.81422189128814,70.77148707584298,54633.33333333334
113.72843314541004,104.79714923944259,70.71114775023932,54666.66666666666
113.85387426513428,105.0098246914888,70.95447804671363,54700.0
113.84166622530586,105.00481965997564,70.97073777871934,54733.33333333334
113.8049361792278,105.01512102113236,70.97145278322121,54766.66666666666
113.87280864360996,104.97717281923627,71.01361156718393,54800.0
113.73133811262426,104.86477627055406,70.80579910987926,54833.33333333334
114.1001628236777,105.24749199012554,71.40992173958715,54866.66666666666
113.88330696202532,105.06711497890295,71.02863924050635,54900.0
113.99598193182415,105.22214927254585,71.28113346289194,54933.33333333333
113.99942223856294,105.22052103576868,71.33531172855717,54966.66666666667
113.98776196228792,105.24155680445402,71.24701927622249,55000.0
114.03563737591259,105.26393192919797,71.27441042071538,55033.33333333333
113.83583533842452,105.24061094256722,71.23391568155665,55066.66666666667
113.87815804552795,105.37953846955251,71.41548158566442,55100.0
113.87069777173343,105.26888272831886,71.27594413641594,55133.33333333334
113.87318234124909,105.24762004393764,71.22797886808243,55166.66666666666
114.0619255212984,105.31876674195074,71.32467566573875,55200.0
114.0520190396485,105.43971649754158,71.38466366774767,55233.33333333334
113.95275303432828,105.31916445277908,71.38737823618274,55266.66666666666
113.89896955748509,105.21029919447642,71.19356104194999,55300.0
114.04511791585692,105.26787121172329,71.20886075949367,55333.33333333334
114.20035190923893,105.19712169756815,71.44884185093754,55366.66666666666
114.06891118231,105.24029623404593,71.41165502389832,55400.0
114.07712027909187,105.15392340830404,71.25932288500674,55433.33333333333
114.03456933689243,105.17065306446072,71.29833232021565,55466.66666666667
114.10806882152391,105.1496154557708,71.29465866744192,55500.0
114.02327494692145,104.97319532908705,71.11515392781317,55533.33333333333
113.99952229299365,104.99527600849257,71.02948513800425,55566.66666666667
114.12897428443058,105.15722705288474,71.26674947802415,55600.0
113.96173036093418,105.01180997876858,71.03917197452229,55633.33333333334
114.01847133757963,105.05220276008491,71.0843152866242,55666.66666666666
114.07823030367099,105.26553373681843,71.22499141052408,55700.0
114.07669741258556,105.27520680815071,71.22324708618548,55733.33333333334
114.12975733010477,105.4019845238722,71.34105385060799,55766.66666666666
114.07974943412115,105.37363794283308,71.29912617781754,55800.0
114.15328486243332,105.40383408306309,71.56530494821634,55833.33333333334
113.98416419232171,105.30588112725948,71.43858415377403,55866.66666666666
113.96503295323778,105.16842765979703,71.39745266241239,55900.0
113.97159744743172,105.1752013808976,71.36136102102729,55933.33333333333
113.98163775589936,105.3243736000417,71.45246653122885,55966.66666666667
113.98267958535187,105.29275407615772,71.46173881335625,56000.0
113.98718549773402,105.31702870240143,71.40946502057615,56033.33333333333
114.01338750846485,105.34143355732668,71.4015731624733,56066.66666666667
113.97184455904569,105.34554878366413,71.34440277126635,56100.0
113.94994009480648,105.3535448247122,71.36086367661612,56133.33333333334
114.02178186679251,105.28759403423241,71.32512909229115,56166.66666666666
113.94651787124279,105.20140022108757,71.13049428857187,56200.0
114.027496002726,105.3284317580142,71.32793373699248,56233.33333333334
114.08383328487987,105.34595766049105,71.11327536538309,56266.66666666666
114.09469566826122,105.4069032957158,71.24230250812697,56300.0
114.1155482728546,105.40431323836457,71.2847477336998,56333.33333333334
113.96949518345,105.34210664841817,71.2047691740801,56366.66666666666
113.96807390640629,105.34000105279779,71.23211559719954,56400.0
114.12500991093374,105.44126119935513,71.19832439146866,56433.33333333332
114.10313041651348,105.540154419875,71.26608540364515,56466.66666666668
114.07527023812668,105.45230858683298,71.14099955070435,56500.0
114.07299733065516,105.44897851309564,71.12678066442899,56533.33333333332
114.09995507043371,105.40338821788194,71.22131775775034,56566.66666666668
114.13486798636256,105.40053386896423,71.1387795015461,56600.0
114.01800284255407,105.30860135810914,71.18247618044954,56633.33333333334
113.97110070011057,105.29367794914988,71.15891982944676,56666.66666666666
114.00602726746328,105.30439016686844,71.20232141917144,56700.0
114.00834342264568,105.29844185924091,71.20090014212771,56733.33333333334
113.99135016120155,105.44669864485859,71.2347251710309,56766.66666666666
114.22484338549448,105.3534638672643,71.44924117323269,56800.0
113.9661525504027,105.27701742380377,71.1579723114176,56833.33333333334
113.94033268410801,105.28386060956993,71.15834079065115,56866.66666666666
