Time[ms],HR[bpm]
833,96.77419
867,96.77419
900,96.77419
933,96.77419
967,96.77419
1000,96.77419
1033,96.77419
1067,96.77419
1100,96.77419
1133,96.77419
1167,96.42857
1200,95.74468
1233,95.74468
1267,95.74468
1300,95.74468
1333,95.74468
1367,95.74468
1400,95.74468
1433,95.74468
1467,95.74468
1500,95.74468
1533,95.74468
1567,95.74468
1600,95.74468
1633,95.74468
1667,95.74468
1700,95.74468
1733,95.74468
1767,96.25668
1800,96.25668
1833,96.25668
1867,96.25668
1900,96.25668
1933,96.25668
1967,96.25668
2000,96.25668
2033,96.25668
2067,96.25668
2100,96.25668
2133,96.25668
2167,96.25668
2200,96.25668
2233,96.25668
2267,98.0198
2300,98.0198
2333,98.0198
2367,96.77419
2400,96.77419
2433,96.77419
2467,96.77419
2500,96.77419
2533,96.77419
2567,96.77419
2600,96.77419
2633,96.77419
2667,96.77419
2700,96.77419
2733,96.77419
2767,96.77419
2800,98.0198
2833,98.0198
2867,98.0198
2900,101.6949
2933,101.6949
2967,101.6949
3000,101.6949
3033,101.6949
3067,101.6949
3100,101.6949
3133,101.6949
3167,101.6949
3200,101.6949
3233,101.6949
3267,101.6949
3300,101.6949
3333,101.6949
3367,101.6949
3400,101.6949
3433,101.6949
3467,101.6949
3500,100.0
3533,100.0
3567,100.0
3600,100.0
3633,100.0
3667,100.0
3700,100.0
3733,98.9011
3767,98.9011
3800,98.9011
3833,98.9011
3867,98.9011
3900,98.9011
3933,98.9011
3967,98.9011
4000,98.9011
4033,98.9011
4067,98.9011
4100,98.9011
4133,98.50746
4167,98.50746
4200,98.50746
4233,98.50746
4267,96.25668
4300,96.25668
4333,96.25668
4367,96.25668
4400,96.25668
4433,96.25668
4467,96.25668
4500,96.25668
4533,96.25668
4567,96.25668
4600,96.25668
4633,96.25668
4667,97.53695
4700,97.53695
4733,97.29729
4767,97.29729
4800,97.29729
4833,97.82609
4867,97.82609
4900,97.82609
4933,97.82609
4967,97.82609
5000,97.82609
5033,101.0204
5067,101.0204
5100,101.0204
5133,101.0204
5167,100.5076
5200,100.5076
5233,100.5076
5267,109.6447
5300,109.6447
5333,115.7895
5367,115.7895
5400,115.7895
5433,115.7895
5467,115.7895
5500,117.3913
5533,117.3913
5567,117.3913
5600,117.3913
5633,117.3913
5667,117.3913
5700,117.3913
5733,117.3913
5767,117.3913
5800,117.3913
5833,117.3913
5867,117.3913
5900,117.3913
5933,117.3913
5967,117.3913
6000,117.5879
6033,117.5879
6067,117.5879
6100,117.5879
6133,117.5879
6167,117.5879
6200,118.6813
6233,118.6813
6267,118.6813
6300,118.6813
6333,118.6813
6367,118.6813
6400,118.6813
6433,118.6813
6467,119.3878
6500,119.3878
6533,119.3878
6567,119.3878
6600,119.3878
6633,119.3878
6667,119.3878
6700,119.3878
6733,119.3878
6767,120.6704
6800,120.6704
6833,120.0
6867,120.0
6900,120.0
6933,121.875
6967,121.875
7000,121.875
7033,121.875
7067,121.875
7100,121.875
7133,121.875
7167,121.875
7200,121.875
7233,121.875
7267,123.5294
7300,129.2818
7333,129.2818
7367,129.2818
7400,129.2818
7433,129.2818
7467,129.2818
7500,129.2818
7533,129.2818
7567,129.2818
7600,129.2818
7633,129.2818
7667,129.2818
7700,129.2818
7733,129.2818
7767,128.5714
7800,128.5714
7833,128.5714
7867,128.5714
7900,128.5714
7933,128.5714
7967,128.5714
8000,128.5714
8033,128.5714
8067,130.0
8100,130.0
8133,130.0
8167,130.0
8200,130.0
8233,129.8969
8267,129.8969
8300,129.8969
8333,129.8969
8367,129.8969
8400,129.8969
8433,129.8969
8467,130.0
8500,130.0
8533,129.8969
8567,129.8969
8600,130.7263
8633,130.7263
8667,130.7263
8700,129.2818
8733,129.2818
8767,129.2818
8800,129.2818
8833,129.2818
8867,129.2818
8900,129.2818
8933,129.2818
8967,125.3731
9000,125.3731
9033,125.3731
9067,125.3731
9100,126.4865
9133,126.4865
9167,126.4865
9200,126.4865
9233,126.4865
9267,126.4865
9300,126.4865
9333,126.4865
9367,126.4865
9400,126.4865
9433,126.4865
9467,116.7568
9500,116.7568
9533,115.8416
9567,115.8416
9600,115.8416
9633,114.8936
9667,114.8936
9700,114.8936
9733,114.8936
9767,114.8936
9800,114.8936
9833,114.8936
9867,114.8936
9900,114.8936
9933,114.8936
9967,114.8936
10000,114.8936
10033,114.8936
10067,114.8936
10100,112.5
10133,112.5
10167,112.5
10200,110.2041
10233,112.5
10267,109.0909
10300,109.0909
10333,109.0909
10367,109.0909
10400,109.0909
10433,109.0909
10467,109.0909
10500,107.6087
10533,107.6087
10567,107.6087
10600,107.6087
10633,107.6087
10667,107.6087
10700,107.6087
10733,107.6087
10767,107.6087
10800,107.6087
10833,107.6087
10867,106.9307
10900,107.4627
10933,107.4627
10967,106.4516
11000,106.4516
11033,106.4516
11067,106.4516
11100,106.4516
11133,106.4516
11167,106.4516
11200,106.4516
11233,106.4516
11267,106.4516
11300,106.4516
11333,106.4516
11367,106.4516
11400,106.4516
11433,105.8824
11467,104.2105
11500,104.2105
11533,104.2105
11567,104.2105
11600,104.2105
11633,104.2105
11667,104.2105
11700,104.2105
11733,104.2105
11767,104.2105
11800,104.2105
11833,104.2105
11867,104.2105
11900,104.2105
11933,100.5587
11967,100.5587
12000,100.5587
12033,100.5076
12067,100.5076
12100,100.5076
12133,100.5076
12167,100.5076
12200,100.5076
12233,100.5076
12267,100.5076
12300,99.44752
12333,99.44752
12367,99.44752
12400,99.44752
12433,99.44752
12467,99.44752
12500,99.44752
12533,99.44752
12567,99.44752
12600,99.44752
12633,99.44752
12667,99.44752
12700,98.50746
12733,98.50746
12767,98.50746
12800,98.50746
12833,98.36066
12867,98.36066
12900,98.36066
12933,98.36066
12967,98.36066
13000,98.36066
13033,98.36066
13067,98.36066
13100,98.36066
13133,98.36066
13167,98.36066
13200,98.36066
13233,98.36066
13267,98.36066
13300,98.36066
13333,98.36066
13367,97.53695
13400,97.53695
13433,97.29729
13467,97.29729
13500,97.29729
13533,97.29729
13567,97.29729
13600,97.29729
13633,97.29729
13667,97.29729
13700,97.29729
13733,97.29729
13767,97.29729
13800,97.29729
13833,97.29729
13867,97.29729
13900,97.29729
13933,97.29729
13967,97.53695
14000,97.53695
14033,95.2381
14067,95.2381
14100,95.2381
14133,95.2381
14167,95.2381
14200,95.2381
14233,95.2381
14267,95.2381
14300,95.2381
14333,95.2381
14367,95.2381
14400,95.2381
14433,95.2381
14467,95.2381
14500,95.29412
14533,96.25668
14567,96.25668
14600,96.25668
14633,96.25668
14667,96.25668
14700,96.25668
14733,96.25668
14767,96.25668
14800,96.25668
14833,96.25668
14867,96.25668
14900,96.25668
14933,96.25668
14967,96.25668
15000,96.25668
15033,96.25668
15067,96.25668
15100,97.05882
15133,97.82609
15167,97.82609
15200,97.82609
15233,97.82609
15267,97.82609
15300,97.82609
15333,97.82609
15367,97.82609
15400,97.82609
15433,97.82609
15467,97.82609
15500,97.82609
15533,97.82609
15567,97.82609
15600,99.49749
15633,99.49749
15667,99.49749
15700,99.49749
15733,99.49749
15767,99.49749
15800,98.9011
15833,98.9011
15867,98.9011
15900,98.9011
15933,98.9011
15967,98.9011
16000,98.9011
16033,98.9011
16067,98.9011
16100,98.9011
16133,98.9011
16167,98.9011
16200,98.9011
16233,98.9011
16267,98.9011
16300,98.9011
16333,98.9011
16367,101.25
16400,101.25
16433,101.25
16467,96.77419
16500,96.77419
16533,96.77419
16567,96.77419
16600,96.77419
16633,96.77419
16667,96.77419
16700,96.77419
16733,96.77419
16767,96.77419
16800,96.77419
16833,96.77419
16867,96.77419
16900,96.77419
16933,96.77419
16967,96.77419
17000,98.0198
17033,98.0198
17067,98.0198
17100,97.29729
17133,97.29729
17167,97.29729
17200,97.29729
17233,97.29729
17267,97.29729
17300,97.29729
17333,97.29729
17367,97.29729
17400,97.29729
17433,97.29729
17467,97.29729
17500,97.29729
17533,98.50746
17567,99.0
17600,99.0
17633,99.0
17667,99.0
17700,98.36066
17733,98.36066
17767,98.36066
17800,98.36066
17833,98.36066
17867,98.36066
17900,98.36066
17933,98.36066
17967,98.36066
18000,98.36066
18033,98.36066
18067,98.36066
18100,99.0
18133,99.0
18167,99.0
18200,99.0
18233,99.0
18267,98.9011
18300,98.9011
18333,98.9011
18367,98.9011
18400,98.9011
18433,98.9011
18467,98.9011
18500,98.9011
18533,98.9011
18567,98.9011
18600,98.9011
18633,98.9011
18667,98.9011
18700,98.9011
18733,98.9011
18767,98.9011
18800,98.9011
18833,98.9011
18867,97.29729
18900,100.0
18933,96.25668
18967,96.25668
19000,96.25668
19033,96.25668
19067,96.25668
19100,96.25668
19133,96.25668
19167,96.25668
19200,96.25668
19233,96.25668
19267,96.25668
19300,96.25668
19333,96.25668
19367,96.25668
19400,96.25668
19433,96.25668
19467,96.25668
19500,97.05882
19533,97.82609
19567,97.82609
19600,97.82609
19633,97.82609
19667,97.82609
19700,97.82609
19733,97.82609
19767,97.82609
19800,97.82609
19833,97.82609
19867,97.82609
19900,97.82609
19933,97.82609
19967,97.82609
20000,97.82609
20033,97.82609
20067,97.82609
20100,97.82609
20133,97.82609
20167,97.05882
20200,96.77419
20233,97.59036
20267,97.59036
20300,94.73684
20333,94.73684
20367,94.73684
20400,94.73684
20433,94.73684
20467,94.73684
20500,94.73684
20533,94.73684
20567,94.73684
20600,94.73684
20633,94.73684
20667,94.73684
20700,94.73684
20733,94.73684
20767,94.73684
20800,93.64162
20833,93.64162
20867,93.64162
20900,94.24084
20933,94.24084
20967,94.24084
21000,94.24084
21033,94.24084
21067,94.24084
21100,93.75
21133,93.75
21167,93.75
21200,93.75
21233,93.75
21267,91.83673
21300,91.83673
21333,91.83673
21367,90.50279
21400,90.50279
21433,90.50279
21467,90.50279
21500,90.50279
21533,90.50279
21567,90.50279
21600,90.50279
21633,90.50279
21667,90.50279
21700,90.50279
21733,90.50279
21767,90.50279
21800,90.50279
21833,90.50279
21867,90.50279
21900,90.50279
21933,88.34356
21967,85.26316
22000,85.26316
22033,85.26316
22067,85.26316
22100,85.26316
22133,85.26316
22167,85.26316
22200,85.26316
22233,85.26316
22267,85.26316
22300,85.26316
22333,85.26316
22367,85.26316
22400,85.26316
22433,85.26316
22467,86.74699
22500,86.74699
22533,86.74699
22567,86.74699
22600,86.74699
22633,86.74699
22667,86.74699
22700,86.74699
22733,86.74699
22767,86.74699
22800,84.81676
22833,84.81676
22867,84.81676
22900,84.81676
22933,84.81676
22967,84.81676
23000,84.81676
23033,84.81676
23067,84.81676
23100,84.81676
23133,84.81676
23167,84.81676
23200,84.81676
23233,85.26316
23267,85.26316
23300,82.75862
23333,82.75862
23367,82.75862
23400,82.75862
23433,82.75862
23467,82.75862
23500,82.75862
23533,82.75862
23567,82.75862
23600,82.75862
23633,82.75862
23667,82.75862
23700,82.75862
23733,82.75862
23767,82.75862
23800,82.75862
23833,79.24529
23867,79.24529
23900,79.24529
23933,79.24529
23967,74.22681
24000,74.22681
24033,74.22681
24067,74.22681
24100,74.22681
24133,74.22681
24167,74.22681
24200,74.22681
24233,74.22681
24267,74.22681
24300,74.22681
24333,72.4138
24367,72.4138
24400,72.4138
24433,72.4138
24467,72.4138
24500,72.4138
24533,62.06896999999999
24567,62.06896999999999
24600,62.06896999999999
24633,62.06896999999999
24667,62.06896999999999
24700,62.06896999999999
24733,62.06896999999999
24767,62.06896999999999
24800,62.06896999999999
24833,64.94846
24867,64.94846
24900,64.94846
24933,64.94846
24967,64.94846
25000,70.12987
25033,70.12987
25067,70.12987
25100,70.12987
25133,70.12987
25167,70.12987
25200,70.12987
25233,70.12987
25267,70.12987
25300,70.12987
25333,70.12987
25367,70.12987
25400,70.12987
25433,70.12987
25467,70.12987
25500,70.12987
25533,70.12987
25567,69.23076999999999
25600,69.23076999999999
25633,69.23076999999999
25667,69.23076999999999
25700,69.23076999999999
25733,69.23076999999999
25767,69.23076999999999
25800,69.23076999999999
25833,69.23076999999999
25867,69.23076999999999
25900,69.23076999999999
25933,69.23076999999999
25967,69.23076999999999
26000,69.23076999999999
26033,69.23076999999999
26067,65.85365999999999
26100,65.85365999999999
26133,65.85365999999999
26167,65.85365999999999
26200,65.85365999999999
26233,65.85365999999999
26267,65.85365999999999
26300,65.85365999999999
26333,65.85365999999999
26367,65.85365999999999
26400,65.85365999999999
26433,65.85365999999999
26467,65.85365999999999
26500,65.85365999999999
26533,65.85365999999999
26567,65.85365999999999
26600,55.38462
26633,55.38462
26667,55.38462
26700,55.38462
26733,55.38462
26767,55.38462
26800,55.38462
26833,55.38462
26867,55.38462
26900,55.38462
26933,54.21686999999999
26967,54.21686999999999
27000,54.21686999999999
27033,54.21686999999999
27067,54.21686999999999
27100,54.21686999999999
27133,54.21686999999999
27167,54.21686999999999
27200,54.21686999999999
27233,54.21686999999999
27267,54.21686999999999
27300,54.21686999999999
27333,54.21686999999999
27367,54.21686999999999
27400,54.21686999999999
27433,54.21686999999999
27467,54.21686999999999
27500,54.21686999999999
27533,54.21686999999999
27567,54.21686999999999
27600,54.21686999999999
27633,54.21686999999999
27667,54.21686999999999
27700,54.21686999999999
27733,54.21686999999999
27767,54.21686999999999
27800,54.21686999999999
27833,54.21686999999999
27867,54.21686999999999
27900,51.79856
27933,51.79856
27967,51.79856
28000,51.79856
28033,51.79856
28067,51.79856
28100,51.79856
28133,51.79856
28167,51.79856
28200,48.12834
28233,48.12834
28267,48.12834
28300,48.12834
28333,48.12834
28367,48.12834
28400,48.12834
28433,48.12834
28467,48.12834
28500,48.12834
28533,48.12834
28567,48.12834
28600,48.12834
28633,48.12834
28667,48.12834
28700,48.12834
28733,48.12834
28767,48.12834
28800,44.44444
28833,44.44444
28867,44.44444
28900,44.44444
28933,44.44444
28967,44.44444
29000,44.44444
29033,44.44444
29067,44.44444
29100,44.44444
29133,47.36842
29167,47.36842
29200,47.36842
29233,47.36842
29267,47.36842
29300,47.36842
29333,47.36842
29367,47.36842
29400,47.36842
29433,47.36842
29467,47.36842
29500,47.36842
29533,47.36842
29567,47.36842
29600,47.36842
29633,46.45161
29667,46.45161
29700,46.45161
29733,46.45161
29767,46.45161
29800,46.45161
29833,46.45161
29867,46.45161
29900,46.45161
29933,50.27933
29967,46.45161
30000,46.45161
30033,49.45055
30067,49.45055
30100,49.18033
30133,49.18033
30167,49.18033
30200,49.45055
30233,49.45055
30267,49.45055
30300,49.45055
30333,49.45055
30367,49.45055
30400,49.45055
30433,49.45055
30467,49.45055
30500,49.45055
30533,49.45055
30567,49.45055
30600,49.45055
30633,49.45055
30667,49.45055
30700,49.45055
30733,49.45055
30767,49.45055
30800,53.73134
30833,53.73134
30867,53.73134
30900,53.73134
30933,53.73134
30967,53.73134
31000,55.21473
31033,55.21473
31067,55.21473
31100,55.55556
31133,55.55556
31167,55.55556
31200,55.55556
31233,55.55556
31267,55.21473
31300,55.21473
31333,55.21473
31367,55.21473
31400,55.21473
31433,55.21473
31467,55.21473
31500,55.21473
31533,55.21473
31567,55.21473
31600,55.21473
31633,55.21473
31667,55.21473
31700,55.21473
31733,55.21473
31767,55.21473
31800,55.21473
31833,55.21473
31867,55.21473
31900,55.21473
31933,55.21473
31967,55.21473
32000,55.21473
32033,55.21473
32067,55.21473
32100,55.21473
32133,55.21473
32167,56.25
32200,56.25
32233,56.25
32267,56.25
32300,56.25
32333,56.25
32367,56.25
32400,55.90062
32433,55.90062
32467,55.90062
32500,55.90062
32533,55.90062
32567,55.90062
32600,55.90062
32633,55.90062
32667,55.90062
32700,55.90062
32733,55.90062
32767,55.90062
32800,55.90062
32833,55.90062
32867,56.60378000000001
32900,56.60378000000001
32933,56.60378000000001
32967,56.5445
33000,56.5445
33033,56.5445
33067,56.5445
33100,56.5445
33133,56.5445
33167,56.5445
33200,56.5445
33233,56.5445
33267,56.5445
33300,56.5445
33333,56.5445
33367,56.25
33400,56.25
33433,62.5
33467,62.5
33500,62.5
33533,62.5
33567,62.5
33600,62.5
33633,62.5
33667,62.5
33700,62.5
33733,62.5
33767,62.5
33800,62.5
33833,62.5
33867,62.5
33900,62.5
33933,62.7907
33967,62.7907
34000,62.7907
34033,62.7907
34067,62.7907
34100,62.7907
34133,62.7907
34167,62.7907
34200,62.7907
34233,62.7907
34267,62.7907
34300,62.7907
34333,62.7907
34367,62.7907
34400,62.7907
34433,62.7907
34467,62.7907
34500,62.7907
34533,62.7907
34567,62.7907
34600,62.7907
34633,62.7907
34667,62.7907
34700,62.7907
34733,62.7907
34767,62.7907
34800,62.7907
34833,62.7907
34867,62.7907
34900,62.7907
34933,62.7907
34967,62.7907
35000,62.7907
35033,62.5
35067,62.5
35100,62.5
35133,62.5
35167,62.5
35200,62.5
35233,62.5
35267,62.5
35300,62.5
35333,62.5
35367,62.5
35400,62.5
35433,62.5
35467,62.5
35500,62.5
35533,62.5
35567,62.5
35600,62.5
35633,62.5
35667,62.5
35700,62.5
35733,62.5
35767,62.5
35800,62.5
35833,62.5
35867,62.5
35900,62.5
35933,62.5
35967,61.53846
36000,61.53846
36033,50.0
36067,61.53846
36100,61.53846
36133,61.53846
36167,61.53846
36200,61.53846
36233,61.53846
36267,61.53846
36300,61.53846
36333,61.53846
36367,61.53846
36400,61.53846
36433,61.53846
36467,61.53846
36500,61.53846
36533,46.15385
36567,46.15385
36600,46.15385
36633,46.15385
36667,46.15385
36700,46.15385
36733,46.15385
36767,46.15385
36800,46.15385
36833,46.15385
36867,43.37349
36900,43.37349
36933,43.37349
36967,43.11377
37000,43.11377
37033,43.11377
37067,43.11377
37100,43.11377
37133,43.11377
37167,43.11377
37200,43.11377
37233,43.11377
37267,43.11377
37300,43.11377
37333,43.11377
37367,43.11377
37400,43.11377
37433,43.11377
37467,43.11377
37500,43.11377
37533,43.11377
37567,43.11377
37600,43.11377
37633,45.22613
37667,45.22613
37700,45.22613
37733,45.22613
37767,45.22613
37800,45.22613
37833,41.86047
37867,41.86047
37900,41.86047
37933,41.86047
37967,41.86047
38000,41.86047
38033,41.86047
38067,41.86047
38100,41.86047
38133,41.86047
38167,41.86047
38200,41.86047
38233,41.86047
38267,41.86047
38300,41.86047
38333,41.6185
38367,41.6185
38400,41.6185
38433,41.6185
38467,41.6185
38500,41.6185
38533,41.6185
38567,41.6185
38600,44.77612
38633,44.77612
38667,44.77612
38700,44.77612
38733,42.60355
38767,42.60355
38800,42.60355
38833,42.60355
38867,42.60355
38900,42.60355
38933,42.60355
38967,42.60355
39000,42.60355
39033,42.60355
39067,42.60355
39100,42.60355
39133,42.60355
39167,42.60355
39200,42.60355
39233,42.60355
39267,42.60355
39300,42.60355
39333,42.60355
39367,42.60355
39400,42.60355
39433,42.60355
39467,42.60355
39500,42.60355
39533,42.60355
39567,42.60355
39600,42.60355
39633,42.60355
39667,44.77612
39700,44.77612
39733,44.77612
39767,44.77612
39800,41.6185
39833,41.6185
39867,41.6185
39900,41.6185
39933,41.6185
39967,41.6185
40000,41.6185
40033,41.6185
40067,41.6185
40100,41.6185
40133,41.6185
40167,41.6185
40200,41.6185
40233,41.6185
40267,41.6185
40300,41.6185
40333,41.6185
40367,41.6185
40400,41.6185
40433,41.6185
40467,41.6185
40500,41.6185
40533,41.6185
40567,41.6185
40600,41.6185
40633,41.6185
40667,41.6185
40700,41.6185
40733,58.06452
40767,57.14286
40800,57.14286
40833,57.14286
40867,57.14286
40900,57.14286
40933,57.14286
40967,57.14286
41000,57.14286
41033,57.14286
41067,57.14286
41100,57.14286
41133,57.14286
41167,57.14286
41200,57.14286
41233,57.14286
41267,57.14286
41300,57.14286
41333,57.14286
41367,57.14286
41400,57.14286
41433,57.14286
41467,57.14286
41500,57.14286
41533,56.69291
41567,56.69291
41600,56.69291
41633,56.69291
41667,56.69291
41700,56.69291
41733,56.69291
41767,56.69291
41800,56.69291
41833,56.69291
41867,56.69291
41900,55.90062
41933,56.69291
41967,56.69291
42000,54.87805
42033,54.87805
42067,54.87805
42100,54.87805
42133,54.87805
42167,54.87805
42200,54.87805
42233,54.87805
42267,54.87805
42300,54.87805
42333,54.87805
42367,54.87805
42400,54.87805
42433,54.87805
42467,54.87805
42500,54.87805
42533,54.87805
42567,54.87805
42600,54.87805
42633,54.87805
42667,54.87805
42700,54.87805
42733,54.87805
42767,54.87805
42800,54.87805
42833,54.87805
42867,54.87805
42900,54.87805
42933,54.87805
42967,54.87805
43000,55.6701
43033,55.6701
43067,55.6701
43100,55.6701
43133,55.6701
43167,55.6701
43200,55.6701
43233,55.6701
43267,55.6701
43300,55.6701
43333,55.6701
43367,56.25
43400,56.25
43433,56.25
43467,56.25
43500,56.25
43533,56.25
43567,56.25
43600,56.25
43633,56.25
43667,56.25
43700,56.25
43733,56.25
43767,56.25
43800,56.25
43833,56.25
43867,56.25
43900,56.25
43933,56.25
43967,56.25
44000,56.25
44033,56.25
44067,56.25
44100,56.25
44133,56.25
44167,56.25
44200,56.25
44233,56.25
44267,56.25
44300,56.25
44333,56.25
44367,56.25
44400,56.25
44433,56.25
44467,56.25
44500,54.54546
44533,50.5618
44567,50.5618
44600,50.5618
44633,50.5618
44667,50.5618
44700,50.5618
44733,50.5618
44767,50.5618
44800,50.5618
44833,50.5618
44867,50.5618
44900,50.5618
44933,50.5618
44967,50.5618
45000,50.5618
45033,50.5618
45067,50.5618
45100,50.5618
45133,50.5618
45167,50.5618
45200,50.5618
45233,50.5618
45267,50.5618
45300,50.5618
45333,50.5618
45367,50.5618
45400,50.5618
45433,49.31507
45467,49.31507
45500,49.31507
45533,49.31507
45567,49.31507
45600,49.31507
45633,49.31507
45667,49.31507
45700,49.31507
45733,49.45055
45767,49.45055
45800,49.45055
45833,49.45055
45867,49.45055
45900,49.45055
45933,49.45055
45967,49.45055
46000,49.45055
46033,49.45055
46067,49.45055
46100,49.45055
46133,49.45055
46167,49.45055
46200,49.45055
46233,49.45055
46267,49.45055
46300,49.45055
46333,49.45055
46367,49.45055
46400,49.45055
46433,49.45055
46467,49.45055
46500,48.32215
46533,48.32215
46567,48.32215
46600,48.32215
46633,52.02312
46667,52.02312
46700,52.32558
46733,52.32558
46767,52.32558
46800,52.32558
46833,52.32558
46867,52.32558
46900,52.32558
46933,52.32558
46967,52.32558
47000,52.32558
47033,52.32558
47067,52.32558
47100,52.32558
47133,52.32558
47167,52.32558
47200,52.32558
47233,52.32558
47267,52.32558
47300,52.32558
47333,54.82233000000001
47367,54.82233000000001
47400,54.82233000000001
47433,54.82233000000001
47467,54.82233000000001
47500,54.82233000000001
47533,54.82233000000001
47567,54.82233000000001
47600,56.25
47633,56.25
47667,56.25
47700,56.25
47733,56.25
47767,56.25
47800,56.25
47833,56.25
47867,56.25
47900,56.25
47933,56.25
47967,56.25
48000,56.25
48033,56.25
48067,56.25
48100,56.25
48133,58.69565
48167,59.01639
48200,59.01639
48233,59.01639
48267,59.01639
48300,59.01639
48333,59.01639
48367,59.01639
48400,59.01639
48433,59.01639
48467,59.01639
48500,59.01639
48533,59.01639
48567,59.01639
48600,59.01639
48633,59.01639
48667,59.01639
48700,59.01639
48733,59.01639
48767,59.01639
48800,59.01639
48833,58.82353000000001
48867,61.36364
48900,61.36364
48933,61.36364
48967,61.36364
49000,61.36364
49033,61.36364
49067,61.36364
49100,61.71429000000001
49133,61.71429000000001
49167,61.71429000000001
49200,61.71429000000001
49233,61.71429000000001
49267,61.71429000000001
49300,61.71429000000001
49333,61.71429000000001
49367,61.71429000000001
49400,61.71429000000001
49433,61.71429000000001
49467,61.71429000000001
49500,61.71429000000001
49533,61.71429000000001
49567,61.71429000000001
49600,61.71429000000001
49633,61.71429000000001
49667,61.71429000000001
49700,61.71429000000001
49733,61.71429000000001
49767,61.71429000000001
49800,63.0
49833,70.12987
49867,70.12987
49900,70.12987
49933,70.12987
49967,70.12987
50000,70.12987
50033,70.12987
50067,70.12987
50100,70.12987
50133,70.12987
50167,70.12987
50200,70.12987
50233,70.12987
50267,70.12987
50300,70.12987
50333,70.12987
50367,70.12987
50400,71.59091
50433,71.59091
50467,71.59091
50500,71.59091
50533,71.59091
50567,71.59091
50600,71.59091
50633,71.59091
50667,71.59091
50700,71.59091
50733,71.59091
50767,71.59091
50800,71.59091
50833,71.59091
50867,71.59091
50900,71.59091
50933,75.0
50967,75.0
51000,75.0
51033,75.0
51067,74.22681
51100,74.22681
51133,74.22681
51167,74.22681
51200,73.84615
51233,73.84615
51267,73.84615
51300,73.84615
51333,73.84615
51367,79.24529
51400,79.24529
51433,79.24529
51467,79.24529
51500,79.24529
51533,79.24529
51567,79.24529
51600,79.24529
51633,79.24529
51667,79.24529
51700,80.44693000000002
51733,80.44693000000002
51767,80.44693000000002
51800,80.44693000000002
51833,80.44693000000002
51867,80.44693000000002
51900,80.44693000000002
51933,80.44693000000002
51967,80.44693000000002
52000,80.44693000000002
52033,80.89888
52067,80.89888
52100,80.89888
52133,80.89888
52167,80.89888
52200,80.89888
52233,80.89888
52267,80.89888
52300,80.89888
52333,80.89888
52367,80.89888
52400,80.89888
52433,80.89888
52467,80.89888
52500,80.89888
52533,80.89888
52567,79.41176999999998
52600,80.0
52633,80.0
52667,80.0
52700,80.0
52733,80.0
52767,80.0
52800,80.0
52833,80.0
52867,80.0
52900,80.0
52933,80.0
52967,80.0
53000,80.0
53033,80.0
53067,80.0
53100,80.0
53133,80.0
53167,80.0
53200,80.0
53233,81.0
53267,81.0
53300,81.0
53333,80.59702
53367,80.59702
53400,80.44693000000002
53433,80.44693000000002
53467,80.44693000000002
53500,80.0
53533,80.0
53567,80.0
53600,80.0
53633,80.0
53667,80.0
53700,80.0
53733,80.0
53767,80.0
53800,80.0
53833,80.0
53867,81.81818
53900,81.81818
53933,81.81818
53967,81.81818
54000,81.81818
54033,81.81818
54067,81.81818
54100,82.75862
54133,82.75862
54167,82.75862
54200,82.75862
54233,82.75862
54267,82.75862
54300,82.75862
54333,82.75862
54367,82.75862
54400,82.75862
54433,82.75862
54467,82.75862
54500,83.93782
54533,83.93782
54567,83.93782
54600,83.93782
54633,83.93782
54667,83.93782
54700,83.93782
54733,83.93782
54767,83.93782
54800,83.93782
54833,83.93782
54867,83.93782
54900,85.71429
54933,85.71429
54967,85.71429
55000,85.71429
55033,85.71429
55067,85.71429
55100,85.71429
55133,85.71429
55167,85.71429
55200,85.71429
55233,85.71429
55267,84.81676
55300,84.81676
55333,84.81676
55367,84.81676
55400,84.81676
55433,84.81676
55467,84.81676
55500,84.81676
55533,84.81676
55567,84.81676
55600,84.81676
55633,84.81676
55667,84.81676
55700,84.81676
55733,84.70588000000002
55767,84.70588000000002
55800,84.70588000000002
55833,84.70588000000002
55867,84.70588000000002
55900,84.70588000000002
55933,84.70588000000002
55967,84.81676
56000,84.81676
56033,84.81676
56067,84.81676
56100,84.81676
56133,84.81676
56167,84.81676
56200,84.81676
56233,84.81676
56267,84.81676
56300,84.81676
56333,84.81676
56367,84.81676
56400,84.81676
56433,84.70588000000002
56467,84.70588000000002
56500,84.70588000000002
56533,84.70588000000002
56567,84.70588000000002
56600,84.70588000000002
56633,84.70588000000002
56667,84.70588000000002
56700,84.70588000000002
56733,84.70588000000002
56767,84.70588000000002
56800,84.70588000000002
56833,84.70588000000002
56867,84.70588000000002
56900,84.70588000000002
56933,84.70588000000002
56967,84.70588000000002
57000,80.59702
57033,84.70588000000002
57067,79.80296
57100,79.80296
57133,79.55801
57167,79.55801
57200,79.55801
57233,79.55801
57267,79.55801
57300,79.55801
57333,79.55801
57367,79.55801
57400,79.55801
57433,79.55801
57467,79.55801
57500,79.55801
57533,79.55801
57567,79.55801
57600,79.55801
57633,79.55801
57667,79.55801
57700,81.0
57733,81.0
57767,81.0
57800,81.0
57833,81.0
57867,80.0
57900,80.0
57933,80.0
57967,80.0
58000,80.0
58033,80.0
58067,80.44693000000002
58100,80.44693000000002
58133,80.44693000000002
58167,80.44693000000002
58200,80.44693000000002
58233,80.44693000000002
58267,80.44693000000002
58300,80.44693000000002
58333,80.44693000000002
58367,81.0
58400,81.0
58433,81.0
58467,81.0
58500,81.0
58533,82.75862
58567,82.75862
58600,82.75862
58633,82.75862
58667,82.75862
58700,82.75862
58733,82.75862
58767,82.75862
58800,82.75862
58833,82.75862
58867,82.75862
58900,82.75862
58933,82.75862
58967,82.75862
59000,82.75862
59033,83.50516
59067,83.50516
59100,83.50516
59133,83.50516
59167,83.50516
59200,83.50516
59233,83.50516
59267,83.50516
59300,83.50516
59333,83.50516
59367,83.50516
59400,83.23699
59433,83.23699
59467,83.23699
59500,83.23699
59533,83.23699
59567,83.23699
59600,83.23699
59633,83.23699
59667,83.23699
59700,83.23699
59733,83.23699
59767,83.07692
59800,83.07692
59833,83.07692
59867,83.07692
59900,83.07692
59933,83.07692
59967,83.07692
60000,83.07692
60033,83.07692
60067,83.07692
60100,81.35593
60133,81.35593
60167,81.35593
60200,81.35593
60233,81.35593
60267,81.35593
60300,81.35593
60333,81.35593
60367,81.35593
60400,81.35593
60433,81.35593
60467,81.35593
60500,81.35593
60533,81.35593
60567,80.59702
60600,80.59702
60633,80.59702
60667,80.59702
60700,79.12088
60733,79.12088
60767,79.12088
60800,79.12088
60833,79.12088
60867,79.12088
60900,79.12088
60933,79.12088
60967,79.12088
61000,79.12088
61033,78.68852
61067,78.68852
61100,78.68852
61133,78.68852
61167,78.68852
61200,78.68852
61233,78.68852
61267,78.68852
61300,78.68852
61333,78.75
61367,78.75
61400,78.75
61433,77.83784
61467,77.83784
61500,77.83784
61533,77.83784
61567,77.83784
61600,77.83784
61633,77.83784
61667,77.83784
61700,77.83784
61733,77.83784
61767,77.83784
61800,77.83784
61833,77.83784
61867,77.41936
61900,77.41936
61933,77.41936
61967,77.41936
62000,77.41936
62033,77.41936
62067,77.41936
62100,76.36364
62133,76.36364
62167,76.36364
62200,77.00535
62233,77.00535
62267,77.00535
62300,77.00535
62333,77.00535
62367,77.00535
62400,77.00535
62433,77.00535
62467,77.00535
62500,77.00535
62533,77.00535
62567,77.00535
62600,77.00535
62633,77.00535
62667,77.00535
62700,77.00535
62733,77.00535
62767,77.00535
62800,80.76923000000002
62833,80.76923000000002
62867,81.81818
62900,81.81818
62933,81.81818
62967,81.81818
63000,81.81818
63033,81.81818
63067,81.81818
63100,81.81818
63133,81.81818
63167,81.81818
63200,81.81818
63233,81.81818
63267,81.81818
63300,85.71429
63333,85.71429
63367,85.71429
63400,85.71429
63433,85.71429
63467,85.71429
63500,85.71429
63533,85.71429
63567,85.71429
63600,85.71429
63633,85.71429
63667,85.71429
63700,85.71429
63733,85.71429
63767,88.66995
63800,98.0198
63833,98.0198
63867,98.9011
63900,98.9011
63933,98.9011
63967,98.9011
64000,98.9011
64033,98.9011
64067,89.01099
64100,89.01099
64133,89.01099
64167,89.01099
64200,89.01099
64233,89.01099
64267,89.01099
64300,89.01099
64333,89.01099
64367,90.0
64400,90.0
64433,90.0
64467,90.0
64500,90.45226
64533,90.50279
64567,90.0
64600,90.0
64633,90.50279
64667,90.50279
64700,90.50279
64733,90.50279
64767,90.50279
64800,90.50279
64833,90.50279
64867,90.50279
64900,90.50279
64933,90.50279
64967,90.50279
65000,90.50279
65033,90.50279
65067,90.50279
65100,89.55224
65133,89.55224
65167,89.55224
65200,89.55224
65233,78.68852
65267,78.68852
65300,78.68852
65333,78.68852
65367,78.68852
65400,78.68852
65433,78.68852
65467,78.68852
65500,78.68852
65533,78.68852
65567,78.68852
65600,78.68852
65633,78.68852
65667,78.68852
65700,78.68852
65733,78.68852
65767,78.68852
65800,78.68852
65833,79.12088
65867,78.75
65900,78.75
65933,78.75
65967,78.75
66000,78.75
66033,78.75
66067,76.19048000000002
66100,76.19048000000002
66133,76.19048000000002
66167,76.19048000000002
66200,76.19048000000002
66233,76.19048000000002
66267,76.19048000000002
66300,76.19048000000002
66333,76.19048000000002
66367,76.19048000000002
66400,76.19048000000002
66433,76.19048000000002
66467,76.19048000000002
66500,76.19048000000002
66533,76.19048000000002
66567,76.19048000000002
66600,76.36364
66633,76.36364
66667,78.68852
66700,78.68852
66733,78.68852
66767,78.68852
66800,78.68852
66833,78.68852
66867,78.68852
66900,78.68852
66933,78.68852
66967,78.68852
67000,78.68852
67033,78.68852
67067,78.68852
67100,78.68852
67133,78.68852
67167,78.68852
67200,78.68852
67233,78.68852
67267,78.68852
67300,78.68852
67333,78.68852
67367,78.68852
67400,81.29032
67433,81.29032
67467,81.29032
67500,81.29032
67533,81.29032
67567,79.12088
67600,79.12088
67633,79.12088
67667,79.12088
67700,79.12088
67733,78.68852
67767,78.68852
67800,78.68852
67833,78.68852
67867,78.68852
67900,78.68852
67933,78.68852
67967,78.68852
68000,78.68852
68033,78.68852
68067,78.68852
68100,78.68852
68133,78.68852
68167,78.68852
68200,78.68852
68233,78.68852
68267,79.41176999999998
68300,79.55801
68333,79.55801
68367,79.55801
68400,79.55801
68433,79.55801
68467,79.55801
68500,79.55801
68533,79.55801
68567,79.55801
68600,79.55801
68633,79.55801
68667,79.55801
68700,79.55801
68733,79.55801
68767,79.55801
68800,79.55801
68833,79.55801
68867,79.55801
68900,79.55801
68933,79.55801
68967,79.55801
69000,79.55801
69033,79.55801
69067,79.74683
69100,78.68852
69133,78.68852
69167,78.68852
69200,78.68852
69233,78.68852
69267,78.68852
69300,78.68852
69333,78.68852
69367,78.68852
69400,78.68852
69433,78.68852
69467,78.68852
69500,78.68852
69533,78.68852
69567,78.68852
69600,78.68852
69633,78.68852
69667,78.68852
69700,78.68852
69733,78.68852
69767,78.68852
69800,78.68852
69833,77.30060999999998
69867,77.30060999999998
69900,77.30060999999998
69933,77.30060999999998
69967,77.30060999999998
70000,77.30060999999998
70033,77.30060999999998
70067,77.30060999999998
70100,77.30060999999998
70133,77.30060999999998
70167,77.30060999999998
70200,77.30060999999998
70233,77.30060999999998
70267,79.55801
70300,79.55801
70333,79.55801
70367,79.55801
70400,80.19802
70433,80.19802
70467,80.19802
70500,78.26087
70533,78.26087
70567,78.26087
70600,78.26087
70633,78.26087
70667,78.26087
70700,78.26087
70733,78.26087
70767,78.26087
70800,78.26087
70833,78.26087
70867,78.26087
70900,78.26087
70933,78.26087
70967,77.83784
71000,77.83784
71033,77.83784
71067,77.83784
71100,78.75
71133,78.75
71167,78.75
71200,78.75
71233,78.75
71267,78.75
71300,77.41936
71333,77.41936
71367,77.41936
71400,77.41936
71433,77.41936
71467,77.41936
71500,77.41936
71533,77.41936
71567,77.41936
71600,77.41936
71633,77.41936
71667,77.41936
71700,77.41936
71733,77.41936
71767,77.41936
71800,77.41936
71833,77.41936
71867,77.41936
71900,77.41936
71933,80.25478000000003
71967,80.25478000000003
72000,80.25478000000003
72033,80.25478000000003
72067,80.25478000000003
72100,80.25478000000003
72133,80.25478000000003
72167,78.68852
72200,79.12088
72233,79.12088
72267,79.12088
72300,79.12088
72333,78.68852
72367,78.68852
72400,78.68852
72433,78.68852
72467,78.68852
72500,78.68852
72533,78.68852
72567,78.68852
72600,78.68852
72633,78.68852
72667,78.68852
72700,78.68852
72733,78.68852
72767,79.12088
72800,79.12088
72833,80.59702
72867,80.59702
72900,79.12088
72933,79.55801
72967,79.55801
73000,79.55801
73033,80.0
73067,80.0
73100,83.93782
73133,83.93782
73167,83.93782
73200,83.93782
73233,83.93782
73267,83.93782
73300,83.93782
73333,83.93782
73367,83.93782
73400,83.93782
73433,83.93782
73467,83.93782
73500,88.34356
73533,88.34356
73567,88.34356
73600,88.34356
73633,88.34356
73667,88.34356
73700,88.34356
73733,88.34356
73767,88.34356
73800,88.34356
73833,92.04546
73867,92.04546
73900,92.04546
73933,92.04546
73967,92.04546
74000,92.04546
74033,92.04546
74067,92.04546
74100,92.04546
74133,92.04546
74167,92.04546
74200,92.04546
74233,92.04546
74267,92.57143
74300,92.57143
74333,92.57143
74367,92.57143
74400,92.57143
74433,92.57143
74467,92.57143
74500,89.55224
74533,88.04348
74567,88.04348
74600,88.04348
74633,88.04348
74667,88.04348
74700,88.04348
74733,88.04348
74767,97.82609
74800,97.82609
74833,97.82609
74867,97.82609
74900,97.82609
74933,97.82609
74967,100.0
75000,100.0
75033,100.0
75067,100.0
75100,100.5587
75133,100.5587
75167,100.5587
75200,100.5587
75233,100.5587
75267,100.5587
75300,100.5587
75333,100.5587
75367,100.5587
75400,100.5587
75433,100.5587
75467,100.5587
75500,100.5587
75533,100.5587
75567,100.5587
75600,98.50746
75633,98.50746
75667,98.50746
75700,98.50746
75733,104.0462
75767,104.0462
75800,104.0462
75833,104.0462
75867,104.0462
75900,104.0462
75933,104.0462
75967,104.0462
76000,104.0462
76033,104.0462
76067,104.0462
76100,104.0462
76133,104.7619
76167,104.7619
76200,104.7619
76233,104.7619
76267,104.7619
76300,104.7619
76333,104.7619
76367,104.7619
76400,104.7619
76433,104.7619
76467,104.7619
76500,104.7619
76533,104.7619
76567,104.7619
76600,104.7619
76633,105.8824
76667,106.4516
76700,106.4516
76733,106.4516
76767,106.4516
76800,106.4516
76833,106.4516
76867,106.4516
76900,106.4516
76933,106.4516
76967,106.4516
77000,106.4516
77033,106.4516
77067,108.5427
77100,108.5427
77133,108.5427
77167,108.5427
77200,108.5427
77233,108.5427
77267,109.3923
77300,109.3923
77333,109.3923
77367,109.3923
77400,109.3923
77433,109.3923
77467,109.3923
77500,109.3923
77533,109.3923
77567,110.2041
77600,110.2041
77633,110.2041
77667,110.2041
77700,110.2041
77733,110.2041
77767,110.2041
77800,110.2041
77833,110.2041
77867,109.3923
77900,109.3923
77933,109.3923
77967,109.3923
78000,109.3923
78033,109.3923
78067,109.3923
78100,109.3923
78133,109.0909
78167,109.0909
78200,109.0909
78233,109.0909
78267,109.0909
78300,109.0909
78333,109.0909
78367,108.7912
78400,108.7912
78433,108.7912
78467,108.7912
78500,108.7912
78533,108.7912
78567,108.7912
78600,108.7912
78633,108.7912
78667,108.7912
78700,108.7912
78733,108.7912
78767,108.7912
78800,106.9307
78833,106.9307
78867,106.9307
78900,106.4516
78933,106.4516
78967,106.4516
79000,105.8824
79033,105.8824
79067,105.3191
79100,105.3191
79133,110.2041
79167,110.2041
79200,110.2041
79233,110.2041
79267,110.2041
79300,110.2041
79333,110.2041
79367,110.2041
79400,114.7059
79433,104.7619
79467,104.7619
79500,104.7619
79533,104.7619
79567,114.2857
79600,114.2857
79633,114.2857
79667,114.2857
79700,114.2857
79733,117.5879
79767,117.5879
79800,117.5879
79833,117.5879
79867,117.5879
79900,117.5879
79933,126.4865
79967,127.8689
80000,127.8689
80033,127.8689
80067,127.8689
80100,127.8689
80133,127.8689
80167,127.8689
80200,137.7049
80233,138.4615
80267,138.4615
80300,138.4615
80333,138.4615
80367,147.6923
80400,147.6923
80433,147.6923
80467,155.1724
80500,155.1724
80533,155.1724
80567,156.5217
80600,156.5217
80633,156.5217
80667,156.5217
80700,155.33
80733,155.33
80767,155.33
80800,155.33
80833,154.0107
80867,154.0107
80900,155.33
80933,155.33
80967,155.33
81000,164.467
81033,164.467
81067,164.467
81100,164.467
81133,164.467
81167,172.8814
81200,174.1935
81233,174.1935
81267,174.1935
81300,174.1935
81333,174.1935
81367,174.1935
81400,174.1935
81433,174.1935
81467,174.1935
81500,174.1935
81533,174.1935
81567,174.1935
81600,174.1935
81633,174.1935
81667,174.1935
81700,172.7273
81733,172.7273
81767,172.7273
81800,172.7273
81833,181.0056
81867,181.0056
81900,181.0056
81933,182.8877
81967,182.8877
82000,182.8877
82033,182.8877
82067,182.8877
82100,182.8877
82133,184.6154
82167,184.6154
82200,184.6154
82233,184.6154
82267,184.6154
82300,184.6154
82333,184.6154
82367,184.6154
82400,184.6154
82433,187.1287
82467,187.5
82500,187.5
82533,187.5
82567,187.5
82600,187.5
82633,187.5
82667,188.0597
82700,188.0597
82733,188.0597
82767,188.0597
82800,187.5
82833,187.5
82867,187.5
82900,187.5
82933,187.5
82967,187.5
83000,187.1287
83033,187.1287
83067,187.1287
83100,187.5
83133,187.5
83167,187.5
83200,187.5
83233,187.5
83267,187.5
83300,187.5
83333,187.1287
83367,187.1287
83400,187.1287
83433,186.5285
83467,186.5285
83500,186.5285
83533,186.5285
83567,186.5285
83600,186.5285
83633,186.5285
83667,186.2069
83700,186.2069
83733,185.567
83767,185.567
83800,185.567
83833,185.567
83867,185.567
83900,185.567
83933,185.567
83967,185.567
84000,185.567
84033,184.6154
84067,184.6154
84100,184.6154
84133,184.6154
84167,184.6154
84200,184.6154
84233,184.6154
84267,184.6154
84300,184.6154
84333,185.2941
84367,185.567
84400,185.567
84433,185.567
84467,185.567
84500,185.567
84533,185.567
84567,185.567
84600,185.567
84633,185.567
84667,185.2941
84700,184.6154
84733,184.6154
84767,184.6154
84800,184.6154
84833,184.6154
84867,184.6154
84900,184.6154
84933,184.6154
84967,185.2941
85000,185.567
85033,185.567
85067,185.567
85100,185.567
85133,185.567
85167,185.567
85200,186.5285
85233,186.5285
85267,186.5285
85300,186.5285
85333,184.0909
85367,173.6041
85400,174.4898
85433,174.4898
85467,174.4898
85500,174.4898
85533,174.4898
85567,174.4898
85600,174.4898
85633,173.262
85667,173.262
85700,174.1935
85733,174.1935
85767,174.1935
85800,174.1935
85833,174.1935
85867,174.1935
85900,174.1935
85933,172.8814
85967,172.8814
86000,172.8814
86033,172.8814
86067,172.8814
86100,161.194
86133,161.194
86167,161.194
86200,161.194
86233,160.2094
86267,160.2094
86300,160.2094
86333,160.2094
86367,160.2094
86400,150.7853
86433,150.7853
86467,141.3613
86500,141.3613
86533,141.3613
86567,140.7821
86600,140.7821
86633,140.7821
86667,140.7821
86700,140.7821
86733,140.7821
86767,140.7821
86800,120.6704
86833,120.6704
86867,120.6704
86900,120.6704
86933,110.6145
86967,107.1429
87000,107.1429
87033,101.0204
87067,101.0204
87100,101.0204
87133,91.83673
87167,91.83673
87200,91.83673
87233,91.83673
87267,91.83673
87300,91.83673
87333,88.04348
87367,88.04348
87400,87.56756999999998
87433,87.56756999999998
87467,87.56756999999998
87500,87.56756999999998
87533,87.56756999999998
87567,87.56756999999998
87600,87.56756999999998
87633,87.56756999999998
87667,87.56756999999998
87700,87.56756999999998
87733,82.28571
87767,82.28571
87800,72.0
87833,72.0
87867,72.0
87900,72.0
87933,72.0
87967,72.0
88000,72.0
88033,72.0
88067,81.20300999999998
88100,81.20300999999998
88133,81.20300999999998
88167,75.90361999999998
88200,75.90361999999998
88233,75.90361999999998
88267,75.90361999999998
88300,75.90361999999998
88333,75.90361999999998
88367,75.90361999999998
88400,75.90361999999998
88433,75.90361999999998
88467,75.90361999999998
88500,75.90361999999998
88533,75.90361999999998
88567,75.90361999999998
88600,75.90361999999998
88633,75.90361999999998
88667,75.90361999999998
88700,75.90361999999998
88733,75.90361999999998
88767,75.90361999999998
88800,75.90361999999998
88833,75.90361999999998
88867,75.90361999999998
88900,75.90361999999998
88933,75.90361999999998
88967,76.19048000000002
89000,76.19048000000002
89033,76.19048000000002
89067,76.19048000000002
89100,76.19048000000002
89133,76.19048000000002
89167,76.19048000000002
89200,76.19048000000002
89233,76.19048000000002
89267,76.19048000000002
89300,76.19048000000002
89333,76.19048000000002
89367,76.19048000000002
89400,76.19048000000002
89433,76.19048000000002
89467,75.0
89500,75.0
89533,75.0
89567,75.0
89600,75.0
89633,75.0
89667,75.0
89700,75.0
89733,75.39267
89767,75.39267
89800,75.39267
89833,75.39267
89867,75.39267
89900,75.39267
89933,75.39267
89967,75.39267
90000,75.39267
90033,75.39267
90067,75.39267
90100,75.78947
90133,75.78947
90167,69.61326
90200,69.61326
90233,69.61326
90267,69.61326
90300,69.61326
90333,69.61326
90367,69.61326
90400,69.61326
90433,69.61326
90467,69.61326
90500,63.905330000000006
90533,63.905330000000006
90567,63.905330000000006
90600,63.905330000000006
90633,63.905330000000006
90667,63.905330000000006
90700,63.905330000000006
90733,63.905330000000006
90767,63.905330000000006
90800,63.905330000000006
90833,63.905330000000006
90867,63.905330000000006
90900,63.52941
90933,63.52941
90967,63.52941
91000,63.52941
91033,63.52941
91067,63.52941
91100,63.52941
91133,63.52941
91167,63.52941
91200,62.06896999999999
91233,62.06896999999999
91267,62.06896999999999
91300,62.06896999999999
91333,62.06896999999999
91367,62.06896999999999
91400,62.06896999999999
91433,62.06896999999999
91467,62.06896999999999
91500,62.06896999999999
91533,62.06896999999999
91567,62.06896999999999
91600,62.06896999999999
91633,62.06896999999999
91667,62.06896999999999
91700,62.06896999999999
91733,62.06896999999999
91767,62.06896999999999
91800,62.06896999999999
91833,62.06896999999999
91867,62.06896999999999
91900,62.06896999999999
91933,62.06896999999999
91967,62.06896999999999
92000,62.06896999999999
92033,62.06896999999999
92067,60.81081
92100,60.81081
92133,60.81081
92167,60.81081
92200,60.81081
92233,60.81081
92267,60.81081
92300,60.81081
92333,60.81081
92367,60.81081
92400,60.81081
92433,60.81081
92467,60.81081
92500,60.81081
92533,60.81081
92567,60.81081
92600,60.81081
92633,60.81081
92667,60.81081
92700,60.81081
92733,60.81081
92767,54.0
92800,54.0
92833,54.0
92867,54.0
92900,54.0
92933,53.57143000000001
92967,53.25444
93000,53.25444
93033,53.25444
93067,53.25444
93100,53.25444
93133,53.25444
93167,53.25444
93200,53.25444
93233,53.25444
93267,53.25444
93300,53.25444
93333,53.25444
93367,53.25444
93400,53.25444
93433,53.25444
93467,53.25444
93500,53.25444
93533,53.57143000000001
93567,53.57143000000001
93600,53.57143000000001
93633,53.57143000000001
93667,53.57143000000001
93700,53.57143000000001
93733,42.85714
93767,42.85714
93800,42.85714
93833,42.85714
93867,44.77612
93900,44.77612
93933,44.77612
93967,44.77612
94000,42.35294
94033,42.35294
94067,42.35294
94100,42.35294
94133,42.35294
94167,42.35294
94200,42.35294
94233,42.35294
94267,42.10526
94300,42.10526
94333,42.10526
94367,42.10526
94400,42.10526
94433,42.10526
94467,42.10526
94500,42.10526
94533,42.10526
94567,42.10526
94600,42.10526
94633,42.10526
94667,42.10526
94700,42.10526
94733,42.10526
94767,42.10526
94800,42.10526
94833,42.10526
94867,42.10526
94900,42.10526
94933,42.10526
94967,42.10526
95000,43.2
95033,43.2
95067,43.2
95100,43.2
95133,43.2
95167,43.2
95200,43.2
95233,43.2
95267,43.2
95300,43.2
95333,43.2
95367,43.2
95400,44.7205
95433,44.7205
95467,45.0
95500,45.0
95533,45.0
95567,45.0
95600,45.0
95633,45.0
95667,45.0
95700,45.0
95733,45.0
95767,45.0
95800,45.0
95833,45.0
95867,45.0
95900,45.0
95933,45.0
95967,45.0
96000,45.0
96033,45.0
96067,45.0
96100,45.0
96133,45.0
96167,45.0
96200,46.39175
96233,46.39175
96267,46.39175
96300,46.39175
96333,46.39175
96367,46.39175
96400,46.15385
96433,46.15385
96467,46.15385
96500,46.15385
96533,46.15385
96567,46.45161
96600,46.45161
96633,46.45161
96667,46.45161
96700,46.45161
96733,46.45161
96767,46.45161
96800,46.45161
96833,46.45161
96867,46.45161
96900,46.45161
96933,46.45161
96967,46.45161
97000,46.45161
97033,46.45161
97067,46.45161
97100,46.45161
97133,46.45161
97167,46.45161
97200,46.45161
97233,46.45161
97267,48.3871
97300,48.3871
97333,48.3871
97367,48.3871
97400,48.3871
97433,48.3871
97467,48.3871
97500,48.3871
97533,48.3871
97567,48.3871
97600,48.3871
97633,48.3871
97667,48.3871
97700,48.3871
97733,48.3871
97767,48.3871
97800,48.12834
97833,47.87234
97867,47.87234
97900,52.17391
97933,59.21053000000001
97967,59.21053000000001
98000,59.60265
98033,59.60265
98067,60.0
98100,60.0
98133,60.0
98167,60.0
98200,67.92453
98233,59.60265
98267,59.60265
98300,59.60265
98333,59.60265
98367,59.60265
98400,59.60265
98433,64.28571
98467,64.28571
98500,64.28571
98533,64.28571
98567,64.28571
98600,53.57143000000001
98633,53.57143000000001
98667,53.57143000000001
98700,53.57143000000001
98733,53.57143000000001
98767,53.57143000000001
98800,53.57143000000001
98833,53.57143000000001
98867,53.57143000000001
98900,53.57143000000001
98933,53.57143000000001
98967,53.57143000000001
99000,53.57143000000001
99033,53.57143000000001
99067,53.57143000000001
99100,53.57143000000001
99133,53.57143000000001
99167,53.57143000000001
99200,53.57143000000001
99233,53.57143000000001
99267,53.57143000000001
99300,53.57143000000001
99333,53.57143000000001
99367,53.57143000000001
99400,53.57143000000001
99433,53.57143000000001
99467,54.0
99500,54.0
99533,54.0
99567,54.0
99600,54.0
99633,53.25444
99667,53.25444
99700,53.25444
99733,53.25444
99767,53.25444
99800,53.25444
99833,53.25444
99867,53.25444
99900,53.25444
99933,53.25444
99967,53.25444
100000,53.25444
100033,53.25444
100067,53.25444
100100,53.25444
100133,53.25444
100167,53.25444
100200,53.25444
100233,53.25444
100267,53.25444
100300,53.25444
100333,53.25444
100367,53.25444
100400,53.25444
100433,53.25444
100467,53.25444
100500,53.25444
100533,53.25444
100567,53.25444
100600,53.25444
100633,53.25444
100667,51.79856
100700,51.79856
100733,51.79856
100767,51.79856
100800,50.27933
100833,50.27933
100867,50.27933
100900,50.27933
100933,50.27933
100967,50.27933
101000,50.27933
101033,50.27933
101067,50.27933
101100,50.27933
101133,50.27933
101167,50.27933
101200,50.27933
101233,50.0
101267,50.0
101300,50.0
101333,50.0
101367,50.0
101400,50.0
101433,50.0
101467,50.0
101500,50.0
101533,50.0
101567,50.0
101600,50.0
101633,50.0
101667,51.79856
101700,51.79856
101733,51.79856
101767,51.79856
101800,51.79856
101833,51.79856
101867,51.79856
101900,51.79856
101933,52.63158000000001
101967,51.79856
102000,51.79856
102033,51.79856
102067,51.79856
102100,51.79856
102133,51.79856
102167,51.79856
102200,51.79856
102233,51.79856
102267,49.45055
102300,49.45055
102333,49.45055
102367,49.45055
102400,49.45055
102433,49.45055
102467,49.45055
102500,49.45055
102533,49.45055
102567,49.45055
102600,49.45055
102633,49.45055
102667,49.45055
102700,49.45055
102733,49.45055
102767,49.45055
102800,49.45055
102833,49.45055
102867,49.45055
102900,49.45055
102933,49.45055
102967,49.45055
103000,49.45055
103033,48.32215
103067,48.32215
103100,48.32215
103133,48.32215
103167,48.32215
103200,48.32215
103233,48.32215
103267,48.32215
103300,48.32215
103333,48.32215
103367,49.45055
103400,49.45055
103433,49.45055
103467,49.45055
103500,49.45055
103533,49.45055
103567,49.45055
103600,49.45055
103633,49.45055
103667,49.45055
103700,49.45055
103733,49.45055
103767,49.45055
103800,49.45055
103833,49.45055
103867,49.45055
103900,49.45055
103933,49.45055
103967,49.45055
104000,53.73134
104033,53.73134
104067,53.73134
104100,53.73134
104133,53.57143000000001
104167,53.57143000000001
104200,53.57143000000001
104233,53.57143000000001
104267,53.57143000000001
104300,53.57143000000001
104333,53.57143000000001
104367,53.57143000000001
104400,53.57143000000001
104433,53.57143000000001
104467,53.57143000000001
104500,53.57143000000001
104533,53.57143000000001
104567,53.57143000000001
104600,53.57143000000001
104633,53.57143000000001
104667,53.57143000000001
104700,53.57143000000001
104733,53.57143000000001
104767,53.57143000000001
104800,53.57143000000001
104833,53.57143000000001
104867,53.57143000000001
104900,53.57143000000001
104933,53.57143000000001
104967,53.57143000000001
105000,53.57143000000001
105033,53.57143000000001
105067,53.57143000000001
105100,53.73134
105133,53.73134
105167,53.73134
105200,54.0
105233,53.57143000000001
105267,53.57143000000001
105300,53.57143000000001
105333,53.57143000000001
105367,53.57143000000001
105400,53.57143000000001
105433,53.57143000000001
105467,53.57143000000001
105500,53.57143000000001
105533,53.57143000000001
105567,53.57143000000001
105600,53.57143000000001
105633,53.57143000000001
105667,53.57143000000001
105700,57.75401
105733,58.06452
105767,58.06452
105800,58.06452
105833,58.06452
105867,58.06452
105900,58.06452
105933,58.06452
105967,58.06452
106000,58.06452
106033,58.06452
106067,58.06452
106100,58.06452
106133,58.06452
106167,58.06452
106200,58.06452
106233,58.06452
106267,58.06452
106300,62.06896999999999
106333,62.06896999999999
106367,62.06896999999999
106400,62.06896999999999
106433,62.06896999999999
106467,62.06896999999999
106500,62.06896999999999
106533,62.06896999999999
106567,62.7907
106600,63.15789
106633,63.15789
106667,63.15789
106700,63.15789
106733,63.15789
106767,63.15789
106800,63.15789
106833,63.15789
106867,63.15789
106900,63.15789
106933,63.15789
106967,63.15789
107000,63.15789
107033,63.15789
107067,63.15789
107100,63.15789
107133,63.15789
107167,63.15789
107200,65.96859
107233,65.96859
107267,65.96859
107300,65.96859
107333,65.96859
107367,65.96859
107400,65.625
107433,65.96859
107467,65.96859
107500,65.96859
107533,65.96859
107567,65.96859
107600,65.96859
107633,65.96859
107667,72.97298
107700,72.97298
107733,72.97298
107767,72.97298
107800,72.97298
107833,72.97298
107867,72.97298
107900,72.97298
107933,72.97298
107967,72.97298
108000,72.97298
108033,72.97298
108067,72.4138
108100,72.4138
108133,72.4138
108167,72.83237
108200,72.83237
108233,72.83237
108267,72.83237
108300,72.83237
108333,72.83237
108367,72.83237
108400,72.83237
108433,72.83237
108467,72.83237
108500,72.83237
108533,72.83237
108567,72.83237
108600,72.83237
108633,72.83237
108667,72.83237
108700,72.83237
108733,72.83237
108767,72.83237
108800,73.46939
108833,73.46939
108867,73.46939
108900,73.46939
108933,73.84615
108967,73.84615
109000,73.84615
109033,73.84615
109067,73.84615
109100,74.22681
109133,77.30060999999998
109167,77.30060999999998
109200,77.30060999999998
109233,77.30060999999998
109267,77.30060999999998
109300,77.30060999999998
109333,77.30060999999998
109367,77.30060999999998
109400,77.30060999999998
109433,77.30060999999998
109467,78.26087
109500,78.68852
109533,78.68852
109567,78.68852
109600,79.12088
109633,79.12088
109667,79.55801
109700,79.55801
109733,79.55801
109767,80.0
109800,80.0
109833,80.0
109867,80.0
109900,82.65306
109933,82.65306
109967,82.65306
110000,82.65306
110033,82.65306
110067,82.65306
110100,82.65306
110133,82.65306
110167,82.65306
110200,81.35593
110233,81.35593
110267,81.35593
110300,81.35593
110333,71.18644
110367,71.18644
110400,71.18644
110433,74.6114
110467,74.6114
110500,74.6114
110533,74.6114
110567,83.93782
110600,83.93782
110633,83.93782
110667,83.93782
110700,83.93782
110733,83.93782
110767,83.93782
110800,83.93782
110833,102.8571
110867,102.8571
110900,102.8571
110933,102.8571
110967,102.8571
111000,102.8571
111033,102.8571
111067,113.2076
111100,113.2076
111133,113.2076
111167,113.2076
111200,113.2076
111233,113.2076
111267,113.2076
111300,113.2076
111333,113.2076
111367,113.2076
111400,113.2076
111433,113.2076
111467,113.2076
111500,113.2076
111533,112.5
111567,112.5
111600,112.5
111633,112.5
111667,113.7931
111700,113.7931
111733,113.7931
111767,113.7931
111800,113.7931
111833,113.7931
111867,115.508
111900,115.508
111933,115.508
111967,115.508
112000,115.508
112033,115.508
112067,115.508
112100,115.508
112133,115.8416
112167,115.8416
112200,115.8416
112233,114.2857
112267,114.2857
112300,114.2857
112333,114.2857
112367,114.2857
112400,114.2857
112433,114.2857
112467,114.2857
112500,114.2857
112533,114.2857
112567,114.2857
112600,114.2857
112633,114.2857
112667,115.1163
112700,115.1163
112733,115.1163
112767,115.1163
112800,115.1163
112833,111.9171
112867,111.9171
112900,111.9171
112933,111.9171
112967,111.9171
113000,111.9171
113033,111.9171
113067,111.9171
113100,111.9171
113133,111.9171
113167,111.9171
113200,111.9171
113233,110.6145
113267,110.6145
113300,110.6145
113333,111.3402
113367,111.3402
113400,111.3402
113433,111.3402
113467,111.3402
113500,111.3402
113533,111.3402
113567,111.3402
113600,111.3402
113633,111.3402
113667,111.3402
113700,109.3923
113733,109.3923
113767,109.3923
113800,109.3923
113833,109.3923
113867,109.3923
113900,109.3923
113933,109.3923
113967,108.0
114000,108.0
114033,108.0
114067,108.0
114100,108.0
114133,107.027
114167,107.027
114200,107.027
114233,107.027
114267,107.027
114300,107.027
114333,107.027
114367,107.027
114400,107.027
114433,107.6087
114467,107.6087
114500,107.6087
114533,107.6087
114567,107.6087
114600,107.6087
114633,107.6087
114667,104.0462
114700,104.0462
114733,104.0462
114767,104.0462
114800,100.0
114833,100.0
114867,100.0
114900,100.0
114933,99.49749
114967,99.49749
115000,99.44752
115033,99.44752
115067,99.44752
115100,99.44752
115133,99.44752
115167,99.44752
115200,99.44752
115233,99.44752
115267,99.44752
115300,99.44752
115333,99.44752
115367,99.44752
115400,99.44752
115433,99.44752
115467,99.44752
115500,99.44752
115533,99.44752
115567,97.05882
115600,98.78049
115633,95.2381
115667,95.2381
115700,95.2381
115733,95.2381
115767,95.2381
115800,95.2381
115833,95.2381
115867,95.2381
115900,95.2381
115933,95.74468
115967,95.74468
116000,95.74468
116033,95.74468
116067,95.74468
116100,95.74468
116133,95.74468
116167,94.73684
116200,94.73684
116233,94.73684
116267,94.73684
116300,94.73684
116333,94.73684
116367,94.73684
116400,94.73684
116433,94.73684
116467,94.73684
116500,94.73684
116533,94.73684
116567,94.73684
116600,94.73684
116633,94.73684
116667,94.73684
116700,94.73684
116733,92.57143
116767,92.57143
116800,92.57143
116833,93.26425
116867,93.26425
116900,93.26425
116933,93.26425
116967,93.26425
117000,93.26425
117033,93.26425
117067,93.26425
117100,93.26425
117133,93.26425
117167,93.26425
117200,93.26425
117233,92.04546
117267,92.04546
117300,92.04546
117333,92.04546
117367,92.04546
117400,93.26425
117433,93.26425
117467,93.26425
117500,93.26425
117533,93.26425
117567,93.26425
117600,93.26425
117633,93.26425
117667,93.26425
117700,93.26425
117733,93.26425
117767,93.26425
117800,93.10345
117833,93.10345
117867,93.10345
117900,93.10345
117933,93.10345
117967,94.24084
118000,94.24084
118033,94.24084
118067,94.24084
118100,94.24084
118133,94.24084
118167,94.24084
118200,94.24084
118233,94.24084
118267,94.24084
118300,94.24084
118333,94.24084
118367,94.24084
118400,94.24084
118433,96.25668
118467,96.25668
118500,96.25668
118533,96.25668
118567,96.25668
118600,96.25668
118633,96.25668
118667,96.25668
118700,96.25668
118733,96.25668
118767,96.25668
118800,96.25668
118833,96.25668
118867,96.25668
118900,96.25668
118933,96.25668
118967,97.53695
119000,97.53695
119033,97.82609
119067,97.82609
119100,97.82609
119133,97.82609
119167,97.82609
119200,97.82609
119233,97.82609
119267,97.82609
119300,97.82609
119333,97.82609
119367,97.82609
119400,97.82609
119433,97.82609
119467,97.82609
119500,97.82609
119533,97.82609
119567,98.0198
119600,98.0198
119633,98.0198
119667,96.77419
119700,96.77419
119733,96.77419
119767,96.77419
119800,96.77419
119833,96.77419
119867,96.77419
119900,96.77419
119933,96.77419
119967,96.77419
120000,96.77419
120033,96.77419
120067,96.77419
120100,96.77419
120133,96.77419
120167,96.77419
120200,96.42857
120233,96.42857
120267,96.42857
120300,94.73684
120333,94.73684
120367,94.73684
120400,94.73684
120433,94.73684
120467,94.73684
120500,94.73684
120533,94.73684
120567,94.73684
120600,94.73684
120633,94.73684
120667,94.73684
120700,94.73684
120733,94.73684
120767,94.73684
120800,94.73684
120833,94.73684
120867,95.74468
120900,95.74468
120933,95.74468
120967,95.74468
121000,95.74468
121033,95.74468
121067,95.74468
121100,95.74468
121133,95.74468
121167,95.74468
121200,95.74468
121233,95.74468
121267,95.74468
121300,95.74468
121333,95.74468
121367,95.74468
121400,95.74468
121433,102.8571
121467,102.8571
121500,102.8571
121533,102.8571
121567,102.8571
121600,102.8571
121633,102.8571
121667,102.5907
121700,102.5907
121733,102.5907
121767,102.5907
121800,102.5907
121833,102.8571
121867,102.8571
121900,102.8571
121933,102.8571
121967,102.8571
122000,102.8571
122033,102.5907
122067,102.5907
122100,102.5907
122133,102.5907
122167,102.5907
122200,103.125
122233,103.125
122267,103.125
122300,103.125
122333,103.125
122367,103.125
122400,103.125
122433,104.0462
122467,104.0462
122500,104.0462
122533,104.0462
122567,104.2105
122600,104.2105
122633,104.2105
122667,104.2105
122700,104.2105
122733,104.2105
122767,104.2105
122800,104.2105
122833,104.2105
122867,104.2105
122900,104.2105
122933,104.2105
122967,104.2105
123000,104.2105
123033,104.2105
123067,104.6512
123100,104.6512
123133,104.7619
123167,104.7619
123200,104.7619
123233,104.7619
123267,104.7619
123300,104.7619
123333,104.7619
123367,104.7619
123400,104.7619
123433,104.7619
123467,104.7619
123500,104.7619
123533,104.7619
123567,104.7619
123600,104.7619
123633,104.7619
123667,105.3191
123700,105.3191
123733,105.3191
123767,105.3191
123800,105.3191
123833,105.3191
123867,105.3191
123900,105.3191
123933,105.3191
123967,105.3191
124000,105.3191
124033,105.3191
124067,105.3191
124100,105.3191
124133,105.3191
124167,105.3191
124200,105.8824
124233,105.8824
124267,105.8824
124300,105.8824
124333,105.8824
124367,105.8824
124400,105.8824
124433,105.8824
124467,105.8824
124500,105.8824
124533,105.8824
124567,105.8824
124600,105.8824
124633,105.8824
124667,105.8824
124700,106.9307
124733,106.9307
124767,106.9307
124800,105.3191
124833,105.3191
124867,105.3191
124900,105.3191
124933,105.3191
124967,105.3191
125000,105.3191
125033,105.3191
125067,105.3191
125100,105.3191
125133,105.3191
125167,105.3191
125200,105.3191
125233,105.3191
125267,104.6512
125300,104.6512
125333,104.6512
125367,104.6512
125400,104.2105
125433,104.2105
125467,104.2105
125500,104.2105
125533,104.2105
125567,104.2105
125600,104.2105
125633,104.2105
125667,104.2105
125700,104.2105
125733,104.2105
125767,104.2105
125800,104.6512
125833,104.6512
125867,104.6512
125900,104.6512
125933,103.6649
125967,103.6649
126000,103.6649
126033,103.6649
126067,103.6649
126100,103.6649
126133,103.6649
126167,103.6649
126200,103.6649
126233,103.6649
126267,103.6649
126300,103.6649
126333,103.6649
126367,103.6649
126400,106.5089
126433,106.5089
126467,106.5089
126500,106.4516
126533,106.4516
126567,106.4516
126600,106.4516
126633,106.4516
126667,106.4516
126700,106.4516
126733,106.4516
126767,106.4516
126800,106.4516
126833,106.4516
126867,106.4516
126900,106.4516
126933,106.4516
126967,106.4516
127000,106.4516
127033,106.4516
127067,106.4516
127100,105.8824
127133,105.8824
127167,105.8824
127200,105.8824
127233,105.8824
127267,105.8824
127300,105.8824
127333,105.8824
127367,105.8824
127400,105.8824
127433,105.8824
127467,105.8824
127500,105.8824
127533,105.8824
127567,105.8824
127600,105.8824
127633,105.8824
127667,105.8824
127700,105.8824
127733,105.8824
127767,105.8824
127800,105.8824
127833,105.8824
127867,105.8824
127900,108.1967
127933,108.1967
127967,108.1967
128000,108.1967
128033,108.1967
128067,108.1967
128100,108.1967
128133,108.1967
128167,108.1967
128200,108.1967
128233,108.1967
128267,108.4337
128300,108.4337
128333,108.4337
128367,103.6649
128400,103.6649
128433,103.6649
128467,103.6649
128500,103.6649
128533,103.6649
128567,103.6649
128600,103.6649
128633,103.6649
128667,103.6649
128700,103.6649
128733,103.6649
128767,103.6649
128800,103.6649
128833,103.4483
128867,103.4483
128900,103.4483
128933,103.4483
128967,103.125
129000,103.125
129033,103.125
129067,103.125
129100,103.125
129133,103.125
129167,103.125
129200,103.125
129233,103.125
129267,103.125
129300,103.125
129333,103.125
129367,103.125
129400,102.8571
129433,102.8571
129467,102.8571
129500,103.6649
129533,103.6649
129567,103.6649
129600,103.6649
129633,103.6649
129667,103.6649
129700,103.6649
129733,103.6649
129767,103.6649
129800,103.6649
129833,103.6649
129867,103.6649
129900,103.6649
129933,103.6649
129967,102.8571
130000,102.8571
130033,102.8571
130067,102.8571
130100,102.8571
130133,102.8571
130167,102.8571
130200,102.8571
130233,102.8571
130267,103.6649
130300,103.6649
130333,103.6649
130367,103.6649
130400,103.6649
130433,103.6649
130467,103.6649
130500,102.8571
130533,102.8571
130567,102.8571
130600,102.8571
130633,102.8571
130667,102.8571
130700,102.8571
130733,102.8571
130767,102.8571
130800,102.8571
130833,102.8571
130867,102.8571
130900,98.50746
130933,98.50746
130967,98.50746
131000,98.50746
131033,96.77419
131067,96.77419
131100,96.77419
131133,96.77419
131167,96.77419
131200,96.77419
131233,96.77419
131267,96.77419
131300,96.77419
131333,96.77419
131367,99.0
131400,99.49749
131433,90.45226
131467,90.45226
131500,90.45226
131533,89.01099
131567,89.01099
131600,89.01099
131633,89.01099
131667,89.01099
131700,89.01099
131733,89.01099
131767,89.01099
131800,89.01099
131833,89.01099
131867,89.01099
131900,89.01099
131933,89.01099
131967,89.01099
132000,89.01099
132033,89.01099
132067,89.01099
132100,89.01099
132133,88.34356
132167,88.34356
132200,88.34356
132233,88.34356
132267,88.34356
132300,88.34356
132333,88.34356
132367,88.34356
132400,88.34356
132433,88.34356
132467,88.34356
132500,88.34356
132533,88.34356
132567,88.34356
132600,88.88889
132633,88.34356
132667,88.34356
132700,88.34356
132733,87.5
132767,87.5
132800,87.5
132833,87.5
132867,87.5
132900,87.5
132933,87.5
132967,87.5
133000,87.5
133033,87.5
133067,73.46939
133100,73.09644
133133,73.46939
133167,73.46939
133200,73.46939
133233,73.46939
133267,73.46939
133300,73.46939
133333,73.46939
133367,70.78650999999998
133400,70.78650999999998
133433,70.78650999999998
133467,70.78650999999998
133500,70.78650999999998
133533,70.78650999999998
133567,70.78650999999998
133600,70.78650999999998
133633,70.78650999999998
133667,60.33519
133700,60.33519
133733,60.33519
133767,60.33519
133800,60.33519
133833,50.27933
133867,50.27933
133900,50.27933
133933,50.27933
133967,50.0
134000,50.0
134033,50.0
134067,50.0
134100,50.0
134133,50.0
134167,50.0
134200,50.0
134233,50.0
134267,50.0
134300,50.0
134333,50.0
134367,50.0
134400,50.0
134433,50.0
134467,50.0
134500,50.0
134533,48.12834
134567,48.12834
134600,47.87234
134633,47.87234
134667,47.87234
134700,47.87234
134733,47.87234
134767,47.87234
134800,47.87234
134833,47.87234
134867,47.87234
134900,47.87234
134933,47.87234
134967,47.87234
135000,47.87234
135033,47.87234
135067,47.87234
135100,47.87234
135133,43.11377
135167,43.11377
135200,43.11377
135233,43.11377
135267,43.11377
135300,43.11377
135333,43.11377
135367,43.11377
135400,43.11377
135433,43.11377
135467,46.39175
135500,46.39175
135533,46.39175
135567,46.39175
135600,46.39175
135633,46.39175
135667,46.39175
135700,46.39175
135733,46.39175
135767,46.39175
135800,46.39175
135833,46.45161
135867,46.45161
135900,46.45161
135933,46.45161
135967,46.45161
136000,46.45161
136033,46.45161
136067,46.45161
136100,46.45161
136133,46.45161
136167,46.45161
136200,46.45161
136233,46.45161
136267,46.45161
136300,49.72376
136333,49.72376
136367,49.72376
136400,49.72376
136433,49.72376
136467,49.72376
136500,49.72376
136533,49.72376
136567,49.72376
136600,49.72376
136633,49.72376
136667,49.72376
136700,49.72376
136733,49.72376
136767,49.72376
136800,49.72376
136833,49.72376
136867,49.72376
136900,49.72376
136933,49.72376
136967,49.72376
137000,49.72376
137033,49.72376
137067,49.72376
137100,48.0
137133,48.0
137167,48.0
137200,48.0
137233,48.0
137267,48.0
137300,48.0
137333,48.0
137367,52.02312
137400,52.32558
137433,52.32558
137467,52.32558
137500,52.63158000000001
137533,58.06452
137567,58.06452
137600,58.06452
137633,58.06452
137667,58.06452
137700,58.06452
137733,58.06452
137767,58.06452
137800,58.06452
137833,58.06452
137867,58.06452
137900,58.06452
137933,58.06452
137967,58.06452
138000,58.06452
138033,58.06452
138067,58.06452
138100,62.06896999999999
138133,62.06896999999999
138167,72.48321999999997
138200,72.48321999999997
138233,72.48321999999997
138267,72.48321999999997
138300,72.48321999999997
138333,72.48321999999997
138367,72.48321999999997
138400,72.97298
138433,72.97298
138467,72.97298
138500,72.97298
138533,72.97298
138567,72.97298
138600,72.97298
138633,76.82927
138667,76.82927
138700,76.82927
138733,76.82927
138767,76.82927
138800,76.82927
138833,76.82927
138867,76.82927
138900,76.82927
138933,76.82927
138967,76.82927
139000,76.82927
139033,76.82927
139067,76.82927
139100,76.82927
139133,76.82927
139167,80.0
139200,80.0
139233,80.0
139267,80.0
139300,80.0
139333,80.0
139367,80.0
139400,90.0
139433,90.0
139467,90.0
139500,90.0
139533,90.0
139567,90.0
139600,90.0
139633,90.0
139667,92.30769
139700,92.30769
139733,92.30769
139767,92.30769
139800,92.30769
139833,92.30769
139867,92.30769
139900,92.30769
139933,92.30769
139967,92.30769
140000,92.04546
140033,92.04546
140067,92.04546
140100,92.04546
140133,92.04546
140167,92.04546
140200,92.04546
140233,95.74468
140267,95.74468
140300,95.74468
140333,95.74468
140367,95.74468
140400,95.74468
140433,95.74468
140467,95.74468
140500,95.74468
140533,95.74468
140567,95.74468
140600,97.53695
140633,98.36066
140667,98.36066
140700,98.36066
140733,98.36066
140767,98.36066
140800,98.36066
140833,98.36066
140867,98.36066
140900,98.36066
140933,98.36066
140967,98.36066
141000,98.36066
141033,98.36066
141067,100.0
141100,100.0
141133,100.0
141167,100.0
141200,100.0
141233,100.0
141267,100.0
141300,109.0909
141333,109.0909
141367,109.0909
141400,109.0909
141433,109.0909
141467,109.0909
141500,109.0909
141533,109.0909
141567,109.0909
141600,109.0909
141633,108.4337
141667,108.4337
141700,108.4337
141733,108.4337
141767,108.4337
141800,108.4337
141833,108.4337
141867,104.7619
141900,104.7619
141933,104.7619
141967,104.7619
142000,104.7619
142033,104.7619
142067,104.7619
142100,104.7619
142133,104.7619
142167,104.7619
142200,104.7619
142233,104.7619
142267,104.7619
142300,104.7619
142333,104.7619
142367,104.7619
142400,107.1429
142433,107.1429
142467,107.1429
142500,107.1429
142533,107.1429
142567,107.1429
142600,104.2105
142633,104.2105
142667,104.2105
142700,104.2105
142733,104.2105
142767,104.2105
142800,104.2105
142833,104.2105
142867,104.2105
142900,104.2105
142933,104.2105
142967,104.2105
143000,104.2105
143033,104.2105
143067,104.2105
143100,105.8824
143133,105.8824
143167,105.8824
143200,105.8824
143233,105.8824
143267,105.8824
143300,103.6649
143333,103.6649
143367,103.6649
143400,103.6649
143433,103.6649
143467,103.6649
143500,103.6649
143533,103.6649
143567,103.6649
143600,103.6649
143633,103.6649
143667,103.6649
143700,103.6649
143733,103.6649
143767,104.0462
143800,104.0462
143833,104.7619
143867,104.7619
143900,104.7619
143933,104.7619
143967,104.7619
144000,104.7619
144033,104.7619
144067,104.7619
144100,104.7619
144133,104.7619
144167,104.7619
144200,104.7619
144233,104.7619
144267,104.7619
144300,104.7619
144333,104.7619
144367,104.6512
144400,104.7619
144433,104.7619
144467,104.7619
144500,104.7619
144533,104.7619
144567,104.7619
144600,104.7619
144633,104.7619
144667,104.7619
144700,104.7619
144733,104.7619
144767,104.7619
144800,104.7619
144833,104.7619
144867,106.4039
144900,106.4039
144933,105.8824
144967,105.8824
145000,105.8824
145033,105.8824
145067,105.8824
145100,105.8824
145133,105.8824
145167,105.8824
145200,105.8824
145233,105.8824
145267,105.8824
145300,105.8824
145333,105.8824
145367,105.8824
145400,106.4039
145433,106.4039
145467,105.8824
145500,105.8824
145533,105.8824
145567,105.8824
145600,105.8824
145633,105.8824
145667,105.8824
145700,105.8824
145733,105.8824
145767,106.4516
145800,106.4516
145833,106.4516
145867,106.4516
145900,106.9307
145933,107.4627
145967,107.4627
146000,106.4516
146033,106.4516
146067,106.4516
146100,106.4516
146133,106.4516
146167,106.4516
146200,106.4516
146233,106.4516
146267,106.4516
146300,106.4516
146333,106.4516
146367,106.4516
146400,106.4516
146433,106.4039
146467,106.4039
146500,103.6649
146533,103.6649
146567,103.6649
146600,103.6649
146633,103.6649
146667,103.6649
146700,103.6649
146733,103.6649
146767,103.6649
146800,103.6649
146833,103.6649
146867,103.6649
146900,101.6949
146933,103.125
146967,103.125
147000,103.125
147033,103.125
147067,103.125
147100,103.125
147133,103.125
147167,103.125
147200,103.125
147233,103.125
147267,103.125
147300,103.125
147333,103.125
147367,102.2727
147400,102.2727
147433,102.2727
147467,102.2727
147500,102.2727
147533,102.2727
147567,102.2727
147600,101.0204
147633,101.0204
147667,101.0204
147700,101.0204
147733,101.0204
147767,101.0204
147800,101.0204
147833,101.0204
147867,101.0204
147900,105.2632
147933,105.2632
147967,105.2632
148000,105.2632
148033,105.2632
148067,107.027
148100,107.027
148133,107.027
148167,107.027
148200,107.027
148233,107.027
148267,107.027
148300,107.027
148333,107.027
148367,107.027
148400,107.027
148433,107.027
148467,107.027
148500,107.027
148533,108.5427
148567,108.5427
148600,108.5427
148633,108.5427
148667,108.5427
148700,108.5427
148733,115.1163
148767,115.1163
148800,115.1163
148833,115.1163
148867,115.1163
148900,115.1163
148933,115.7895
148967,115.7895
149000,118.0328
149033,118.0328
149067,118.0328
149100,118.0328
149133,118.0328
149167,118.0328
149200,118.0328
149233,118.0328
149267,118.0328
149300,118.0328
149333,118.0328
149367,118.0328
149400,118.7817
149433,118.7817
149467,118.7817
149500,118.7817
149533,118.7817
149567,118.7817
149600,118.7817
149633,118.7817
149667,118.6813
149700,118.6813
149733,118.6813
149767,118.6813
149800,118.6813
149833,118.6813
149867,118.6813
149900,118.7817
149933,118.7817
149967,118.7817
150000,118.7817
150033,118.7817
150067,118.7817
150100,118.7817
150133,118.7817
150167,119.337
150200,119.337
150233,119.337
150267,119.337
150300,119.337
150333,119.337
150367,119.337
150400,119.337
150433,119.337
150467,118.1818
150500,118.1818
150533,118.1818
150567,118.1818
150600,118.1818
150633,118.1818
150667,118.1818
150700,118.0328
150733,118.0328
150767,118.0328
150800,118.0328
150833,118.0328
150867,118.0328
150900,118.0328
150933,118.0328
150967,118.1818
151000,118.1818
151033,118.1818
151067,118.1818
151100,118.1818
151133,118.1818
151167,118.1818
151200,118.0328
151233,118.0328
151267,118.0328
151300,118.0328
151333,118.0328
151367,118.0328
151400,118.0328
151433,118.7817
151467,118.7817
151500,118.7817
151533,118.7817
151567,118.7817
151600,118.7817
151633,118.7817
151667,118.7817
151700,118.0328
151733,118.0328
151767,118.0328
151800,118.0328
151833,118.0328
151867,118.0328
151900,118.7817
151933,118.7817
151967,118.7817
152000,118.7817
152033,118.7817
152067,118.7817
152100,118.7817
152133,118.7817
152167,119.337
152200,119.337
152233,119.337
152267,119.337
152300,119.337
152333,119.337
152367,119.337
152400,119.3878
152433,119.3878
152467,119.3878
152500,119.3878
152533,119.3878
152567,119.3878
152600,119.3878
152633,119.3878
152667,119.3878
152700,120.6704
152733,120.6704
152767,120.6704
152800,120.6704
152833,120.6704
152867,120.6704
152900,120.6704
152933,120.0
152967,120.0
153000,120.0
153033,120.6186
153067,120.6186
153100,120.6186
153133,120.6186
153167,120.6186
153200,120.6186
153233,120.6186
153267,120.6704
153300,120.6704
153333,120.6704
153367,120.6704
153400,120.6704
153433,120.6704
153467,119.3878
153500,119.3878
153533,119.3878
153567,119.3878
153600,119.3878
153633,119.3878
153667,119.3878
153700,119.3878
153733,119.3878
153767,122.7273
153800,122.7273
153833,122.7273
153867,122.7273
153900,122.7273
153933,123.1579
153967,123.1579
154000,123.1579
154033,123.1579
154067,123.1579
154100,123.1579
154133,123.1579
154167,123.1579
154200,123.1579
154233,123.1579
154267,123.1579
154300,123.1579
154333,123.1579
154367,123.1579
154400,123.5294
154433,123.1579
154467,123.1579
154500,123.1579
154533,123.1579
154567,123.1579
154600,123.1579
154633,123.1579
154667,123.1579
154700,123.1579
154733,123.1579
154767,123.1579
154800,123.1579
154833,123.1579
154867,123.1579
154900,123.4286
154933,123.4286
154967,121.875
155000,121.875
155033,121.875
155067,121.875
155100,121.875
155133,121.875
155167,121.875
155200,121.875
155233,121.875
155267,121.875
155300,121.875
155333,121.875
155367,121.875
155400,119.337
155433,119.337
155467,119.337
155500,119.337
155533,119.337
155567,119.337
155600,119.337
155633,119.337
155667,119.337
155700,119.337
155733,119.337
155767,118.5629
155800,118.5629
155833,118.5629
155867,118.5629
155900,116.129
155933,116.129
155967,116.129
156000,116.129
156033,115.508
156067,115.508
156100,115.508
156133,115.508
156167,115.508
156200,115.7895
156233,115.7895
156267,115.7895
156300,112.5
156333,112.5
156367,112.5
156400,112.5
156433,112.5
156467,112.5
156500,112.5
156533,112.5
156567,112.5
156600,112.5
156633,112.5
156667,112.5
156700,112.5
156733,113.1429
156767,113.1429
156800,113.1429
156833,113.1429
156867,112.5
156900,112.5
156933,112.5
156967,112.5
157000,112.5
157033,112.5
157067,112.5
157100,112.5
157133,112.5
157167,112.5
157200,112.5
157233,112.5
157267,112.5
157300,111.8644
157333,111.8644
157367,111.8644
157400,111.8644
157433,111.3402
157467,111.3402
157500,111.3402
157533,111.3402
157567,111.3402
157600,111.3402
157633,111.3402
157667,111.3402
157700,111.3402
157733,111.3402
157767,111.3402
157800,108.7912
157833,108.7912
157867,108.7912
157900,108.7912
157933,108.7912
157967,108.7912
158000,108.5427
158033,108.5427
158067,108.5427
158100,108.5427
158133,108.7912
158167,108.7912
158200,108.4337
158233,108.4337
158267,103.6649
158300,103.6649
158333,103.6649
158367,103.6649
158400,103.6649
158433,103.6649
158467,103.6649
158500,103.6649
158533,103.6649
158567,103.6649
158600,103.6649
158633,103.6649
158667,103.6649
158700,103.6649
158733,102.8571
158767,102.8571
158800,103.6649
158833,103.6649
158867,103.6649
158900,103.6649
158933,103.6649
158967,103.6649
159000,103.6649
159033,103.6649
159067,103.6649
159100,103.6649
159133,103.6649
159167,103.6649
159200,103.6649
159233,103.6649
159267,101.6949
159300,101.6949
159333,101.6949
159367,101.6949
159400,104.7619
159433,104.7619
159467,104.7619
159500,104.7619
159533,104.7619
159567,104.7619
159600,104.7619
159633,104.7619
159667,104.7619
159700,104.7619
159733,104.6512
159767,104.6512
159800,104.6512
159833,104.6512
159867,104.6512
159900,104.6512
159933,104.6512
159967,104.6512
160000,115.1163
160033,115.1163
160067,115.1163
160100,104.6512
160133,99.0
160167,99.0
160200,99.0
160233,99.0
160267,99.0
160300,96.25668
160333,96.25668
160367,96.25668
160400,96.25668
160433,96.25668
160467,96.25668
160500,105.8824
160533,105.8824
160567,105.8824
160600,105.8824
160633,105.8824
160667,106.4039
160700,106.4039
160733,105.3191
160767,105.3191
160800,114.8936
160833,114.8936
160867,114.8936
160900,114.8936
160933,114.8936
160967,114.8936
161000,114.8936
161033,114.8936
161067,114.8936
161100,114.8936
161133,114.8936
161167,114.8936
161200,114.7059
161233,115.508
161267,115.508
161300,115.508
161333,115.508
161367,114.8936
161400,105.3191
161433,105.3191
161467,105.8824
161500,105.8824
161533,105.8824
161567,105.8824
161600,105.8824
161633,106.4516
161667,106.4516
161700,106.4516
161733,106.4516
161767,106.4516
161800,104.6512
161833,104.6512
161867,104.6512
161900,104.6512
161933,104.6512
161967,104.6512
162000,104.6512
162033,104.6512
162067,104.6512
162100,103.1847
162133,103.1847
162167,103.1847
162200,103.1847
162233,103.1847
162267,99.31035
162300,99.31035
162333,99.31035
162367,99.31035
162400,99.31035
162433,99.31035
162467,99.31035
162500,99.31035
162533,99.31035
162567,80.19802
162600,80.19802
162633,80.19802
162667,76.59574
162700,76.59574
162733,76.59574
162767,76.59574
162800,76.59574
162833,76.59574
162867,76.59574
162900,67.02128
162933,67.02128
162967,67.02128
163000,67.02128
163033,67.02128
163067,67.02128
163100,67.02128
163133,63.15789
163167,63.15789
163200,63.15789
163233,63.15789
163267,63.15789
163300,63.15789
163333,63.15789
163367,63.15789
163400,63.15789
163433,63.15789
163467,63.15789
163500,63.31658
163533,63.31658
163567,63.31658
163600,63.31658
163633,63.0
163667,63.0
163700,58.69565
163733,58.69565
163767,58.69565
163800,58.69565
163833,58.69565
163867,58.69565
163900,58.69565
163933,58.69565
163967,58.69565
164000,58.69565
164033,58.69565
164067,58.69565
164100,58.69565
164133,58.69565
164167,58.69565
164200,58.69565
164233,57.69231
164267,57.69231
164300,57.69231
164333,57.69231
164367,57.69231
164400,57.69231
164433,57.69231
164467,57.69231
164500,50.34965
164533,50.34965
164567,50.34965
164600,50.34965
164633,50.34965
164667,50.34965
164700,50.34965
164733,50.34965
164767,50.34965
164800,50.34965
164833,50.34965
164867,50.0
164900,50.0
164933,50.0
164967,50.0
165000,50.0
165033,50.0
165067,50.0
165100,47.12042
165133,50.0
165167,50.0
165200,50.0
165233,50.0
165267,50.0
165300,45.68528
165333,45.68528
165367,45.68528
165400,45.68528
165433,45.68528
165467,45.68528
165500,45.68528
165533,45.68528
165567,42.35294
165600,42.35294
165633,42.35294
165667,42.35294
165700,42.35294
165733,42.35294
165767,42.35294
165800,42.35294
165833,42.35294
165867,42.10526
165900,42.10526
165933,42.10526
165967,42.10526
166000,42.10526
166033,42.10526
166067,42.10526
166100,42.10526
166133,42.10526
166167,42.10526
166200,42.10526
166233,42.10526
166267,42.10526
166300,42.10526
166333,42.10526
166367,42.10526
166400,41.86047
166433,44.11765
166467,42.35294
166500,42.35294
166533,42.35294
166567,42.35294
166600,42.35294
166633,42.35294
166667,42.35294
166700,42.35294
166733,42.35294
166767,42.35294
166800,42.35294
166833,42.35294
166867,42.35294
166900,42.35294
166933,42.35294
166967,42.35294
167000,42.35294
167033,42.35294
167067,42.35294
167100,42.35294
167133,42.35294
167167,42.35294
167200,46.63213
167233,46.63213
167267,46.63213
167300,46.63213
167333,46.63213
167367,46.63213
167400,46.63213
167433,46.63213
167467,46.63213
167500,46.63213
167533,46.63213
167567,46.63213
167600,51.42857
167633,51.42857
167667,51.42857
167700,51.42857
167733,51.42857
167767,51.42857
167800,51.42857
167833,51.42857
167867,51.42857
167900,51.42857
167933,51.42857
167967,51.42857
168000,51.42857
168033,51.42857
168067,51.42857
168100,53.89222
168133,53.89222
168167,53.89222
168200,53.89222
168233,53.89222
168267,53.89222
168300,53.89222
168333,53.89222
168367,53.89222
168400,53.89222
168433,53.89222
168467,53.89222
168500,53.89222
168533,53.89222
168567,53.89222
168600,53.89222
168633,53.89222
168667,53.89222
168700,53.89222
168733,53.89222
168767,53.89222
168800,53.89222
168833,53.89222
168867,53.89222
168900,53.89222
168933,53.89222
168967,53.89222
169000,53.89222
169033,53.89222
169067,55.10204
169100,55.10204
169133,55.10204
169167,55.10204
169200,55.10204
169233,55.10204
169267,55.10204
169300,55.10204
169333,55.10204
169367,54.21686999999999
169400,54.21686999999999
169433,54.21686999999999
169467,54.21686999999999
169500,54.21686999999999
169533,54.21686999999999
169567,54.21686999999999
169600,54.21686999999999
169633,54.21686999999999
169667,54.21686999999999
169700,54.21686999999999
169733,54.21686999999999
169767,54.21686999999999
169800,54.21686999999999
169833,54.21686999999999
169867,54.21686999999999
169900,54.21686999999999
169933,54.21686999999999
169967,54.21686999999999
170000,55.6701
170033,55.6701
170067,55.6701
170100,55.6701
170133,55.95855
170167,55.95855
170200,55.95855
170233,55.95855
170267,55.95855
170300,55.95855
170333,55.95855
170367,65.21739000000001
170400,65.21739000000001
170433,65.21739000000001
170467,65.21739000000001
170500,65.21739000000001
170533,65.21739000000001
170567,65.21739000000001
170600,65.21739000000001
170633,65.21739000000001
170667,65.21739000000001
170700,65.21739000000001
170733,65.21739000000001
170767,65.21739000000001
170800,65.21739000000001
170833,65.85365999999999
170867,65.85365999999999
170900,65.85365999999999
170933,65.85365999999999
170967,65.85365999999999
171000,65.85365999999999
171033,65.85365999999999
171067,65.85365999999999
171100,65.85365999999999
171133,65.85365999999999
171167,65.85365999999999
171200,65.85365999999999
171233,65.85365999999999
171267,65.85365999999999
171300,65.85365999999999
171333,65.85365999999999
171367,65.85365999999999
171400,65.85365999999999
171433,65.85365999999999
171467,65.85365999999999
171500,65.85365999999999
171533,65.85365999999999
171567,65.85365999999999
171600,65.85365999999999
171633,65.85365999999999
171667,65.85365999999999
171700,65.85365999999999
171733,65.85365999999999
171767,65.85365999999999
171800,65.85365999999999
171833,65.85365999999999
171867,65.85365999999999
171900,65.85365999999999
171933,65.85365999999999
171967,65.45454000000001
172000,65.45454000000001
172033,65.45454000000001
172067,65.45454000000001
172100,65.45454000000001
172133,61.76471
172167,62.7907
172200,62.7907
172233,62.7907
172267,62.7907
172300,62.7907
172333,62.7907
172367,62.7907
172400,62.7907
172433,62.7907
172467,62.7907
172500,62.7907
172533,62.7907
172567,62.7907
172600,62.7907
172633,62.7907
172667,62.7907
172700,62.7907
172733,62.7907
172767,62.7907
172800,62.7907
172833,62.7907
172867,62.7907
172900,62.7907
172933,62.7907
172967,62.7907
173000,62.7907
173033,62.7907
173067,63.0
173100,63.0
173133,63.0
173167,63.0
173200,63.0
173233,61.36364
173267,61.36364
173300,61.36364
173333,61.36364
173367,61.71429000000001
173400,61.71429000000001
173433,61.71429000000001
173467,61.71429000000001
173500,60.67416
173533,59.01639
173567,59.01639
173600,59.01639
173633,68.85246
173667,68.85246
173700,68.85246
173733,68.85246
173767,68.85246
173800,68.85246
173833,68.85246
173867,68.85246
173900,68.47825999999999
173933,68.47825999999999
173966,68.47825999999999
174000,68.47825999999999
174033,68.47825999999999
174066,68.47825999999999
174100,68.47825999999999
174133,68.47825999999999
174166,68.47825999999999
174200,68.47825999999999
174233,68.47825999999999
174266,68.47825999999999
174300,68.47825999999999
174333,68.47825999999999
174366,68.47825999999999
174400,68.47825999999999
174433,68.47825999999999
174466,68.47825999999999
174500,68.47825999999999
174533,68.47825999999999
174566,68.47825999999999
174600,68.47825999999999
174633,68.47825999999999
174666,68.47825999999999
174700,68.47825999999999
174733,68.47825999999999
174766,68.47825999999999
174800,68.47825999999999
174833,68.47825999999999
174866,68.47825999999999
174900,68.47825999999999
174933,68.47825999999999
174966,68.47825999999999
175000,68.47825999999999
175033,68.47825999999999
175066,68.47825999999999
175100,68.47825999999999
175133,68.47825999999999
175166,68.47825999999999
175200,68.47825999999999
175233,68.47825999999999
175266,68.47825999999999
175300,68.47825999999999
175333,68.47825999999999
175366,68.47825999999999
175400,68.47825999999999
175433,68.47825999999999
175466,68.47825999999999
175500,68.47825999999999
175533,68.47825999999999
175566,68.47825999999999
175600,68.47825999999999
175633,68.47825999999999
175666,68.47825999999999
175700,68.47825999999999
175733,68.47825999999999
175766,68.47825999999999
175800,68.47825999999999
175833,68.47825999999999
175866,68.47825999999999
175900,68.47825999999999
175933,68.47825999999999
175966,68.47825999999999
176000,68.47825999999999
176033,68.47825999999999
176066,68.47825999999999
176100,68.47825999999999
176133,68.47825999999999
176166,68.47825999999999
176200,68.47825999999999
176233,68.47825999999999
176266,68.47825999999999
176300,68.47825999999999
176333,68.47825999999999
176366,68.47825999999999
176400,68.47825999999999
176433,68.47825999999999
176466,68.47825999999999
176500,68.47825999999999
176533,68.47825999999999
176566,68.47825999999999
176600,68.47825999999999
176633,68.47825999999999
176666,68.47825999999999
176700,68.47825999999999
176733,68.47825999999999
176766,68.47825999999999
176800,68.47825999999999
176833,68.47825999999999
176866,68.47825999999999
176900,68.47825999999999
176933,68.47825999999999
176966,68.47825999999999
177000,68.47825999999999
177033,68.47825999999999
177066,68.47825999999999
177100,68.47825999999999
177133,68.47825999999999
177166,68.47825999999999
177200,68.47825999999999
177233,68.47825999999999
177266,68.47825999999999
177300,68.47825999999999
177333,68.47825999999999
177366,68.47825999999999
177400,68.47825999999999
177433,68.47825999999999
177466,68.47825999999999
177500,68.47825999999999
177533,68.47825999999999
177566,68.47825999999999
177600,68.47825999999999
177633,68.47825999999999
177666,68.47825999999999
177700,68.47825999999999
177733,68.47825999999999
177766,68.47825999999999
177800,68.47825999999999
177833,68.47825999999999
177866,68.47825999999999
177900,68.47825999999999
177933,68.47825999999999
177966,68.47825999999999
178000,68.47825999999999
178033,68.47825999999999
178066,68.47825999999999
178100,68.47825999999999
178133,68.47825999999999
178166,68.47825999999999
178200,68.47825999999999
178233,68.47825999999999
178266,68.47825999999999
178300,68.47825999999999
178333,68.47825999999999
178366,68.47825999999999
178400,68.47825999999999
178433,68.47825999999999
178466,68.47825999999999
178500,68.47825999999999
178533,68.47825999999999
178566,68.47825999999999
178600,68.47825999999999
178633,68.47825999999999
178666,68.47825999999999
178700,68.47825999999999
178733,68.47825999999999
178766,68.47825999999999
178800,68.47825999999999
178833,68.47825999999999
178866,68.47825999999999
178900,68.47825999999999
178933,68.47825999999999
178966,68.47825999999999
179000,68.47825999999999
179033,68.47825999999999
179066,68.47825999999999
179100,68.47825999999999
179133,68.47825999999999
179166,68.47825999999999
179200,68.47825999999999
179233,68.47825999999999
179266,68.47825999999999
179300,68.47825999999999
179333,68.47825999999999
179366,68.47825999999999
179400,68.47825999999999
179433,68.47825999999999
179466,68.47825999999999
179500,68.47825999999999
179533,68.47825999999999
179566,68.47825999999999
179600,68.47825999999999
179633,68.47825999999999
179666,68.47825999999999
179700,68.47825999999999
179733,68.47825999999999
179766,68.47825999999999
179800,68.47825999999999
179833,68.47825999999999
179866,68.47825999999999
179900,68.47825999999999
179933,68.47825999999999
179966,68.47825999999999
180000,68.47825999999999
180033,68.47825999999999
180066,68.47825999999999
180100,68.47825999999999
180133,68.47825999999999
180166,68.47825999999999
180200,68.47825999999999
180233,68.47825999999999
180266,68.47825999999999
180300,68.47825999999999
180333,68.47825999999999
180366,68.47825999999999
180400,68.47825999999999
180433,68.47825999999999
180466,68.47825999999999
180500,68.47825999999999
180533,68.47825999999999
180566,68.47825999999999
180600,68.47825999999999
180633,68.47825999999999
180666,68.47825999999999
180700,68.47825999999999
180733,68.47825999999999
180766,68.47825999999999
