Time[ms],HR[bpm]
867,79.55801
900,79.55801
933,79.55801
967,79.55801
1000,79.55801
1033,79.55801
1067,79.55801
1100,79.55801
1133,79.55801
1167,79.55801
1200,79.55801
1233,79.55801
1267,79.55801
1300,79.55801
1333,79.55801
1367,79.55801
1400,77.83784
1433,77.83784
1467,77.83784
1500,77.83784
1533,77.83784
1567,77.83784
1600,77.83784
1633,77.83784
1667,77.83784
1700,77.83784
1733,77.83784
1767,77.83784
1800,77.41936
1833,77.41936
1867,77.41936
1900,77.41936
1933,77.41936
1967,77.41936
2000,77.41936
2033,77.41936
2067,76.82927
2100,76.82927
2133,76.82927
2167,76.82927
2200,76.36364
2233,76.36364
2267,76.36364
2300,75.78947
2333,75.78947
2367,75.78947
2400,75.78947
2433,75.78947
2467,75.78947
2500,75.78947
2533,75.78947
2567,75.78947
2600,75.78947
2633,75.78947
2667,75.78947
2700,75.78947
2733,75.78947
2767,75.78947
2800,75.0
2833,75.0
2867,75.0
2900,75.0
2933,75.0
2967,75.0
3000,75.0
3033,75.0
3067,75.0
3100,75.0
3133,74.6114
3167,74.6114
3200,74.6114
3233,74.6114
3267,74.6114
3300,74.6114
3333,74.6114
3367,74.6114
3400,74.6114
3433,74.6114
3467,74.6114
3500,74.6114
3533,72.0
3567,72.0
3600,72.0
3633,72.0
3667,72.0
3700,72.0
3733,72.0
3767,72.0
3800,72.0
3833,72.0
3867,72.0
3900,72.0
3933,72.0
3967,72.0
4000,72.0
4033,72.0
4067,72.0
4100,70.58823000000002
4133,69.61326
4167,69.61326
4200,69.61326
4233,69.61326
4267,69.61326
4300,69.61326
4333,69.61326
4367,69.61326
4400,69.61326
4433,69.61326
4467,69.61326
4500,69.61326
4533,69.61326
4567,69.61326
4600,69.61326
4633,69.61326
4667,69.61326
4700,69.61326
4733,69.61326
4767,69.61326
4800,69.61326
4833,69.61326
4867,69.61326
4900,70.78650999999998
4933,70.78650999999998
4967,70.78650999999998
5000,70.78650999999998
5033,70.78650999999998
5067,70.78650999999998
5100,70.78650999999998
5133,70.78650999999998
5167,70.78650999999998
5200,70.78650999999998
5233,70.78650999999998
5267,70.78650999999998
5300,70.78650999999998
5333,70.78650999999998
5367,70.78650999999998
5400,70.78650999999998
5433,70.78650999999998
5467,70.78650999999998
5500,70.78650999999998
5533,70.78650999999998
5567,70.78650999999998
5600,70.78650999999998
5633,72.0
5667,72.0
5700,72.0
5733,72.0
5767,72.0
5800,71.59091
5833,71.59091
5867,71.59091
5900,71.59091
5933,71.59091
5967,71.59091
6000,71.59091
6033,71.59091
6067,71.59091
6100,71.59091
6133,71.59091
6167,71.59091
6200,71.59091
6233,71.59091
6267,71.59091
6300,71.59091
6333,71.59091
6367,71.59091
6400,71.59091
6433,71.59091
6467,71.59091
6500,71.59091
6533,71.59091
6567,71.59091
6600,71.52318000000002
6633,71.52318000000002
6667,71.52318000000002
6700,68.85246
6733,68.85246
6767,68.85246
6800,68.85246
6833,68.85246
6867,68.85246
6900,68.85246
6933,68.85246
6967,68.85246
7000,68.85246
7033,68.85246
7067,68.47825999999999
7100,68.47825999999999
7133,68.47825999999999
7167,68.47825999999999
7200,68.47825999999999
7233,68.47825999999999
7267,68.47825999999999
7300,68.47825999999999
7333,68.47825999999999
7367,68.47825999999999
7400,68.35443000000001
7433,68.35443000000001
7467,69.61326
7500,69.61326
7533,69.61326
7567,69.61326
7600,69.61326
7633,69.61326
7667,69.61326
7700,69.61326
7733,69.61326
7767,69.23076999999999
7800,69.23076999999999
7833,69.23076999999999
7867,69.23076999999999
7900,69.23076999999999
7933,69.23076999999999
7967,69.23076999999999
8000,69.23076999999999
8033,69.23076999999999
8067,69.23076999999999
8100,69.61326
8133,69.61326
8167,71.28713
8200,71.28713
8233,71.28713
8267,71.59091
8300,71.59091
8333,71.59091
8367,71.59091
8400,71.59091
8433,71.59091
8467,71.59091
8500,71.59091
8533,71.59091
8567,71.59091
8600,71.59091
8633,71.59091
8667,71.59091
8700,71.59091
8733,71.59091
8767,71.59091
8800,71.59091
8833,71.59091
8867,71.59091
8900,71.59091
8933,71.59091
8967,72.0
9000,72.0
9033,72.0
9067,72.0
9100,72.0
9133,72.0
9167,72.0
9200,72.0
9233,72.0
9267,72.0
9300,72.0
9333,72.0
9367,72.0
9400,72.0
9433,72.0
9467,72.0
9500,72.0
9533,72.0
9567,72.0
9600,72.0
9633,72.0
9667,72.0
9700,72.0
9733,70.78650999999998
9767,70.78650999999998
9800,70.78650999999998
9833,70.78650999999998
9867,70.78650999999998
9900,70.78650999999998
9933,70.78650999999998
9967,72.48321999999997
10000,72.48321999999997
10033,72.48321999999997
10067,72.48321999999997
10100,70.0
10133,70.0
10167,70.0
10200,70.0
10233,70.0
10267,70.0
10300,70.0
10333,70.0
10367,70.0
10400,70.0
10433,70.0
10467,70.0
10500,70.0
10533,70.0
10567,70.0
10600,70.0
10633,70.0
10667,70.0
10700,70.0
10733,70.0
10767,70.0
10800,70.0
10833,70.0
10867,70.0
10900,70.0
10933,68.78981
10967,68.78981
11000,68.47825999999999
11033,68.47825999999999
11067,68.47825999999999
11100,68.47825999999999
11133,68.47825999999999
11167,68.47825999999999
11200,68.47825999999999
11233,68.47825999999999
11267,68.47825999999999
11300,68.47825999999999
11333,68.47825999999999
11367,68.47825999999999
11400,67.74194
11433,67.74194
11467,67.74194
11500,67.74194
11533,67.74194
11567,67.74194
11600,67.74194
11633,67.74194
11667,67.74194
11700,66.25766999999999
11733,66.25766999999999
11767,66.25766999999999
11800,66.25766999999999
11833,66.25766999999999
11867,66.25766999999999
11900,66.25766999999999
11933,66.25766999999999
11967,66.25766999999999
12000,66.25766999999999
12033,65.625
12067,65.625
12100,65.625
12133,65.625
12167,65.625
12200,65.625
12233,65.625
12267,65.625
12300,65.625
12333,65.625
12367,65.625
12400,65.625
12433,65.625
12467,66.25766999999999
12500,66.25766999999999
12533,66.25766999999999
12567,66.25766999999999
12600,66.25766999999999
12633,66.25766999999999
12667,66.25766999999999
12700,66.25766999999999
12733,66.25766999999999
12767,66.25766999999999
12800,66.25766999999999
12833,67.37968000000001
12867,67.37968000000001
12900,67.37968000000001
12933,67.37968000000001
12967,67.37968000000001
13000,67.37968000000001
13033,67.37968000000001
13067,67.37968000000001
13100,67.37968000000001
13133,67.37968000000001
13167,67.37968000000001
13200,67.37968000000001
13233,67.37968000000001
13267,67.37968000000001
13300,67.37968000000001
13333,67.37968000000001
13367,67.37968000000001
13400,67.37968000000001
13433,67.08074
13467,67.08074
13500,67.08074
13533,67.08074
13567,67.08074
13600,67.08074
13633,67.08074
13667,67.08074
13700,67.08074
13733,67.08074
13767,67.08074
13800,66.31579
13833,67.08074
13867,65.625
13900,65.625
13933,65.625
13967,66.31579
14000,66.31579
14033,66.31579
14067,66.31579
14100,66.31579
14133,66.31579
14167,66.31579
14200,66.31579
14233,65.625
14267,64.94846
14300,63.52941
14333,63.52941
14367,63.52941
14400,63.52941
14433,68.10811
14467,68.10811
14500,68.10811
14533,68.10811
14567,68.10811
14600,68.10811
14633,68.10811
14667,68.10811
14700,68.10811
14733,68.10811
14767,68.10811
14800,68.10811
14833,68.10811
14867,68.10811
14900,77.83784
14933,81.0
14967,81.0
15000,81.0
15033,81.0
15067,81.0
15100,80.44693000000002
15133,80.44693000000002
15167,80.44693000000002
15200,80.44693000000002
15233,80.44693000000002
15267,80.44693000000002
15300,80.44693000000002
15333,80.44693000000002
15367,80.44693000000002
15400,80.44693000000002
15433,80.44693000000002
15467,83.07692
15500,83.07692
15533,83.07692
15567,83.07692
15600,83.07692
15633,83.07692
15667,83.07692
15700,83.07692
15733,83.07692
15767,83.07692
15800,90.0
15833,90.0
15867,90.0
15900,90.0
15933,90.0
15967,89.44099
16000,91.52542
16033,91.52542
16067,91.52542
16100,91.52542
16133,91.52542
16167,91.52542
16200,91.52542
16233,91.52542
16267,91.52542
16300,91.52542
16333,91.52542
16367,91.52542
16400,91.52542
16433,91.52542
16467,91.52542
16500,93.75
16533,93.75
16567,93.75
16600,93.75
16633,93.75
16667,93.75
16700,93.75
16733,93.75
16767,93.75
16800,93.75
16833,93.75
16867,93.75
16900,93.75
16933,97.00599
16967,99.44752
17000,99.44752
17033,109.3923
17067,109.3923
17100,109.3923
17133,109.3923
17167,109.3923
17200,109.3923
17233,109.3923
17267,109.3923
17300,109.3923
17333,109.3923
17367,109.3923
17400,111.3402
17433,111.3402
17467,111.3402
17500,111.3402
17533,111.3402
17567,111.3402
17600,111.3402
17633,111.3402
17667,111.3402
17700,111.3402
17733,111.3402
17767,120.7317
17800,120.7317
17833,120.7317
17867,120.7317
17900,120.6704
17933,120.6704
17967,120.6704
18000,120.6704
18033,120.6704
18067,120.6704
18100,120.6704
18133,120.6704
18167,120.6704
18200,120.6704
18233,120.6704
18267,120.6704
18300,120.6704
18333,120.6704
18367,120.6704
18400,120.6186
18433,121.2435
18467,121.2435
18500,121.2435
18533,121.2435
18567,121.2435
18600,121.2435
18633,121.2435
18667,121.2435
18700,121.2435
18733,121.2435
18767,120.6704
18800,120.6704
18833,120.6704
18867,120.6186
18900,120.6186
18933,120.6186
18967,120.6186
19000,120.6186
19033,120.6186
19067,120.6186
19100,120.6186
19133,120.6186
19167,120.6186
19200,120.6186
19233,120.6704
19267,120.6704
19300,120.6704
19333,120.6704
19367,120.6704
19400,120.6704
19433,120.6704
19467,120.6186
19500,120.6186
19533,120.6186
19567,120.6186
19600,120.6186
19633,120.6186
19667,120.6186
19700,120.6186
19733,121.3483
19767,121.3483
19800,121.3483
19833,121.875
19867,121.875
19900,121.875
19933,121.875
19967,121.875
20000,121.875
20033,121.875
20067,121.875
20100,121.875
20133,121.875
20167,121.875
20200,121.875
20233,121.875
20267,122.0339
20300,122.0339
20333,122.0339
20367,122.0339
20400,122.5131
20433,122.5131
20467,122.5131
20500,122.5131
20533,122.5131
20567,122.5131
20600,122.5131
20633,122.5131
20667,122.5131
20700,122.5131
20733,122.5131
20767,122.7273
20800,122.5131
20833,122.5131
20867,122.5131
20900,122.5131
20933,122.5131
20967,122.5131
21000,122.5131
21033,122.5131
21067,122.5131
21100,122.5131
21133,122.5131
21167,122.5131
21200,122.5131
21233,122.5131
21267,123.4286
21300,123.1579
21333,123.1579
21367,123.1579
21400,123.1579
21433,123.1579
21467,123.1579
21500,123.1579
21533,123.1579
21567,123.1579
21600,123.1579
21633,123.1579
21667,123.1579
21700,123.1579
21733,123.1579
21767,123.1579
21800,123.1579
21833,123.1579
21867,123.1579
21900,123.1579
21933,123.1579
21967,123.1579
22000,123.1579
22033,123.1579
22067,123.1579
22100,123.1579
22133,123.1579
22167,123.1579
22200,123.1579
22233,123.1579
22267,123.1579
22300,123.8095
22333,123.8095
22367,123.8095
22400,123.8095
22433,123.8095
22467,123.8095
22500,123.8095
22533,123.8095
22567,123.8095
22600,123.8095
22633,123.8095
22667,123.8095
22700,123.8095
22733,123.8095
22767,123.8095
22800,123.5294
22833,123.8095
22867,123.8095
22900,123.8095
22933,123.8095
22967,123.8095
23000,123.8095
23033,123.8095
23067,123.8095
23100,123.8095
23133,123.8095
23167,123.8095
23200,123.8095
23233,123.8095
23267,123.8095
23300,123.5294
23333,123.1579
23367,123.1579
23400,123.1579
23433,123.1579
23467,123.1579
23500,123.1579
23533,123.1579
23567,123.1579
23600,123.1579
23633,123.1579
23667,123.1579
23700,123.1579
23733,123.1579
23767,123.5294
23800,122.5131
23833,122.5131
23867,122.5131
23900,122.5131
23933,122.5131
23967,122.5131
24000,122.5131
24033,122.5131
24067,122.5131
24100,122.5131
24133,122.5131
24167,122.5131
24200,122.5131
24233,123.1579
24267,123.1579
24300,123.1579
24333,123.1579
24367,122.5131
24400,122.5131
24433,122.5131
24467,122.5131
24500,122.5131
24533,122.5131
24567,122.5131
24600,122.5131
24633,122.5131
24667,122.5131
24700,122.5131
24733,122.5131
24767,122.5131
24800,122.5131
24833,122.5131
24867,122.5131
24900,122.5131
24933,122.5131
24967,122.5131
25000,122.5131
25033,122.5131
25067,122.5131
25100,122.5131
25133,122.5131
25167,123.5294
25200,123.8095
25233,123.8095
25267,123.8095
25300,123.8095
25333,123.8095
25367,123.8095
25400,123.8095
25433,123.8095
25467,123.8095
25500,123.8095
25533,123.8095
25567,123.8095
25600,123.8095
25633,123.8095
25667,123.5294
25700,123.1579
25733,123.1579
25767,123.1579
25800,123.1579
25833,123.1579
25867,123.1579
25900,123.1579
25933,123.1579
25967,123.1579
26000,123.1579
26033,123.1579
26067,123.1579
26100,123.1579
26133,123.1579
26167,122.5131
26200,122.5131
26233,122.5131
26267,122.5131
26300,122.5131
26333,122.5131
26367,122.5131
26400,122.5131
26433,122.5131
26467,122.5131
26500,122.5131
26533,122.5131
26567,122.5131
26600,122.5131
26633,122.0339
26667,121.875
26700,121.875
26733,121.875
26767,121.875
26800,121.875
26833,121.875
26867,121.875
26900,121.875
26933,121.875
26967,121.875
27000,121.875
27033,121.875
27067,121.875
27100,122.0339
27133,122.5131
27167,122.5131
27200,122.5131
27233,122.5131
27267,122.5131
27300,122.5131
27333,122.5131
27367,122.5131
27400,122.5131
27433,122.5131
27467,122.5131
27500,122.5131
27533,122.5131
27567,122.5131
27600,123.4286
27633,123.1579
27667,123.1579
27700,123.1579
27733,123.1579
27767,123.1579
27800,123.1579
27833,123.1579
27867,123.1579
27900,123.1579
27933,123.1579
27967,123.1579
28000,123.1579
28033,123.1579
28067,124.1379
28100,124.1379
28133,124.4681
28167,124.4681
28200,124.4681
28233,124.4681
28267,124.4681
28300,124.4681
28333,124.4681
28367,124.4681
28400,124.4681
28433,124.4681
28467,124.4681
28500,124.4681
28533,124.7525
28567,124.7525
28600,124.7525
28633,125.1337
28667,125.1337
28700,125.1337
28733,125.1337
28767,125.1337
28800,125.1337
28833,125.1337
28867,125.1337
28900,125.1337
28933,125.1337
28967,125.1337
29000,125.3731
29033,125.3731
29067,125.3731
29100,125.3731
29133,125.8064
29167,125.8064
29200,125.8064
29233,125.8064
29267,125.8064
29300,125.8064
29333,125.8064
29367,125.8064
29400,125.8064
29433,126.6332
29467,126.6332
29500,126.6332
29533,126.6332
29567,126.6332
29600,126.6332
29633,127.1739
29667,127.1739
29700,127.1739
29733,127.1739
29767,127.1739
29800,127.1739
29833,127.1739
29867,127.9188
29900,127.9188
29933,127.9188
29967,127.9188
30000,127.9188
30033,127.9188
30067,127.9188
30100,127.9188
30133,127.8689
30167,127.8689
30200,127.8689
30233,127.8689
30267,127.8689
30300,127.8689
30333,127.9188
30367,127.9188
30400,127.9188
30433,127.9188
30467,127.9188
30500,127.9188
30533,127.9188
30567,127.9188
30600,128.5714
30633,128.5714
30667,128.5714
30700,128.5714
30733,128.5714
30767,128.5714
30800,128.5714
30833,128.5714
30867,128.5714
30900,128.5714
30933,128.5714
30967,128.5714
31000,128.5714
31033,128.5714
31067,128.5714
31100,128.5714
31133,128.5714
31167,128.5714
31200,128.5714
31233,129.2308
31267,129.2308
31300,129.2308
31333,129.2308
31367,129.2308
31400,129.2308
31433,129.2308
31467,129.2308
31500,129.2308
31533,129.2308
31567,128.5714
31600,128.5714
31633,128.5714
31667,128.5714
31700,128.5714
31733,128.5714
31767,128.5714
31800,128.5714
31833,128.5714
31867,128.5714
31900,128.5714
31933,128.5714
31967,128.5714
32000,129.2818
32033,129.2818
32067,129.2818
32100,129.2818
32133,129.2818
32167,129.2308
32200,129.2308
32233,129.2308
32267,129.2308
32300,129.2308
32333,129.2308
32367,129.2308
32400,129.2308
32433,129.2308
32467,129.2308
32500,130.0
32533,130.0
32567,131.25
32600,131.25
32633,131.25
32667,131.25
32700,131.25
32733,131.25
32767,131.25
32800,131.25
32833,131.25
32867,131.25
32900,131.25
32933,131.25
32967,131.25
33000,132.2034
33033,132.2034
33067,132.2034
33100,132.6316
33133,132.6316
33167,132.6316
33200,132.6316
33233,132.6316
33267,132.6316
33300,132.6316
33333,132.6316
33367,132.6316
33400,132.6316
33433,133.0049
33467,133.0049
33500,134.0426
33533,134.0426
33567,134.0426
33600,134.0426
33633,134.0426
33667,134.0426
33700,134.0426
33733,134.0426
33767,134.0426
33800,134.0426
33833,134.0426
33867,134.0426
33900,133.6634
33933,133.6634
33967,133.6634
34000,134.0426
34033,134.0426
34067,134.0426
34100,134.0426
34133,134.0426
34167,134.0426
34200,134.0426
34233,134.0426
34267,134.0426
34300,134.0426
34333,134.0426
34367,134.0426
34400,133.0049
34433,133.0049
34467,133.3333
34500,133.3333
34533,133.3333
34567,133.3333
34600,133.3333
34633,133.3333
34667,133.3333
34700,133.3333
34733,133.3333
34767,133.3333
34800,133.3333
34833,133.3333
34867,133.3333
34900,132.3529
34933,131.9372
34967,131.9372
35000,131.9372
35033,131.9372
35067,131.9372
35100,131.9372
35133,131.9372
35167,131.9372
35200,131.9372
35233,131.9372
35267,131.9372
35300,131.9372
35333,131.9372
35367,132.2034
35400,131.25
35433,131.25
35467,131.25
35500,131.25
35533,131.25
35567,131.25
35600,131.25
35633,131.25
35667,131.25
35700,131.25
35733,131.25
35767,131.25
35800,131.25
35833,130.7263
35867,130.7263
35900,130.7263
35933,129.2308
35967,129.2308
36000,129.2308
36033,129.2308
36067,129.2308
36100,129.2308
36133,129.2308
36167,129.2308
36200,129.2308
36233,129.2308
36267,128.5714
36300,128.5714
36333,128.5714
36367,128.5714
36400,128.5714
36433,128.5714
36467,128.5714
36500,128.5714
36533,128.5714
36567,128.5714
36600,128.5714
36633,128.5714
36667,128.5714
36700,128.5714
36733,128.5714
36767,128.5714
36800,128.5714
36833,128.5714
36867,128.5714
36900,127.9188
36933,127.9188
36967,127.9188
37000,127.9188
37033,127.9188
37067,127.9188
37100,127.9188
37133,127.9188
37167,127.8689
37200,128.5714
37233,128.5714
37267,128.5714
37300,128.5714
37333,128.5714
37367,128.5714
37400,128.5714
37433,128.5714
37467,128.5714
37500,128.5714
37533,129.2818
37567,124.1379
37600,124.1379
37633,123.1579
37667,123.1579
37700,123.1579
37733,123.1579
37767,123.1579
37800,123.1579
37833,123.1579
37867,123.1579
37900,113.6842
37933,113.6842
37967,113.6842
38000,113.6842
38033,113.6842
38067,112.5
38100,112.5
38133,112.5
38167,111.3402
38200,111.3402
38233,112.5
38267,112.5
38300,112.5
38333,112.5
38367,112.5
38400,112.5
38433,112.5
38467,112.5
38500,112.5
38533,100.0
38567,93.75
38600,93.75
38633,93.75
38667,93.75
38700,93.75
38733,93.75
38767,93.75
38800,93.75
38833,93.75
38867,93.75
38900,93.75
38933,93.75
38967,93.75
39000,90.50279
39033,90.50279
39067,80.44693000000002
39100,80.44693000000002
39133,80.44693000000002
39167,80.44693000000002
39200,80.44693000000002
39233,80.89888
39267,80.89888
39300,80.89888
39333,80.89888
39367,80.89888
39400,80.89888
39433,75.4491
39467,64.67066
39500,64.28571
39533,64.28571
39567,64.28571
39600,64.28571
39633,64.28571
39667,64.28571
39700,64.28571
39733,64.28571
39767,64.28571
39800,64.28571
39833,64.28571
39867,64.28571
39900,64.28571
39933,64.28571
39967,64.28571
40000,64.28571
40033,64.28571
40067,64.28571
40100,64.28571
40133,64.28571
40167,64.28571
40200,64.28571
40233,64.28571
40267,64.28571
40300,64.28571
40333,64.28571
40367,64.28571
40400,64.28571
40433,64.28571
40467,63.95939
40500,63.95939
40533,63.95939
40567,63.95939
40600,63.95939
40633,63.95939
40667,63.95939
40700,63.95939
40733,64.67066
40767,64.67066
40800,64.67066
40833,64.67066
40867,64.67066
40900,64.67066
40933,64.67066
40967,64.67066
41000,64.67066
41033,64.67066
41067,64.67066
41100,64.67066
41133,64.67066
41167,64.67066
41200,64.67066
41233,64.67066
41267,64.67066
41300,64.67066
41333,64.67066
41367,64.67066
41400,64.67066
41433,64.67066
41467,64.67066
41500,63.63636
41533,63.63636
41567,63.63636
41600,63.63636
41633,63.31658
41667,63.31658
41700,63.31658
41733,63.52941
41767,63.52941
41800,63.52941
41833,63.52941
41867,63.52941
41900,63.52941
41933,63.52941
41967,63.52941
42000,63.52941
42033,63.52941
42067,63.52941
42100,63.52941
42133,63.52941
42167,63.52941
42200,63.52941
42233,63.52941
42267,63.52941
42300,63.52941
42333,63.52941
42367,63.52941
42400,63.52941
42433,63.52941
42467,63.52941
42500,63.52941
42533,63.52941
42567,63.52941
42600,63.52941
42633,63.52941
42667,63.52941
42700,62.5
42733,62.5
42767,62.5
42800,59.34066
42833,59.34066
42867,59.34066
42900,59.66851
42933,59.66851
42967,59.66851
43000,59.66851
43033,59.66851
43067,59.66851
43100,59.66851
43133,59.66851
43167,59.66851
43200,59.66851
43233,59.66851
43267,60.0
43300,60.0
43333,60.0
43367,60.0
43400,60.0
43433,60.0
43467,60.0
43500,60.0
43533,60.0
43567,60.0
43600,58.06452
43633,58.06452
43667,59.34066
43700,59.34066
43733,59.34066
43767,59.34066
43800,59.34066
43833,59.34066
43867,59.34066
43900,59.34066
43933,59.34066
43967,59.34066
44000,59.34066
44033,59.34066
44067,59.34066
44100,59.34066
44133,59.34066
44167,59.34066
44200,59.34066
44233,59.34066
44267,59.34066
44300,59.34066
44333,59.34066
44367,59.34066
44400,59.34066
44433,59.66851
44467,60.0
44500,60.0
44533,60.0
44567,60.0
44600,60.0
44633,60.0
44667,60.0
44700,60.0
44733,60.0
44767,60.0
44800,60.0
44833,60.0
44867,60.0
44900,60.0
44933,60.0
44967,60.0
45000,60.0
45033,60.0
45067,60.0
45100,60.0
45133,60.0
45167,60.0
45200,60.0
45233,60.0
45267,60.0
45300,60.0
45333,60.0
45367,60.0
45400,60.0
45433,60.0
45467,60.0
45500,58.44156
45533,58.44156
45567,58.44156
45600,58.44156
45633,58.44156
45667,58.82353000000001
45700,58.69565
45733,58.69565
45767,58.69565
45800,58.69565
45833,58.69565
45867,58.69565
45900,58.69565
45933,58.69565
45967,58.69565
46000,55.95855
46033,58.82353000000001
46067,58.69565
46100,58.69565
46133,58.37838000000001
46167,56.84211
46200,56.84211
46233,56.5445
46267,56.5445
46300,56.5445
46333,56.5445
46367,60.67416
46400,60.67416
46433,60.67416
46467,60.67416
46500,60.33519
46533,70.39106
46567,70.39106
46600,70.39106
46633,70.39106
46667,70.39106
46700,70.39106
46733,70.39106
46767,70.39106
46800,70.39106
46833,75.0
46867,75.0
46900,75.0
46933,75.0
46967,75.0
47000,75.0
47033,75.0
47067,75.0
47100,75.0
47133,75.0
47167,75.0
47200,75.0
47233,75.0
47267,78.26087
47300,78.26087
47333,81.81818
47367,81.81818
47400,81.81818
47433,81.81818
47467,81.81818
47500,81.81818
47533,81.81818
47567,81.81818
47600,81.81818
47633,81.81818
47667,81.81818
47700,81.81818
47733,81.81818
47767,81.81818
47800,85.26316
47833,85.26316
47867,85.26316
47900,85.26316
47933,85.26316
47967,85.26316
48000,85.26316
48033,85.26316
48067,85.26316
48100,85.26316
48133,85.26316
48167,85.26316
48200,85.26316
48233,85.26316
48267,85.26316
48300,99.38651
48333,99.38651
48367,99.38651
48400,99.38651
48433,99.38651
48467,99.38651
48500,99.38651
48533,99.38651
48567,99.38651
48600,100.0
48633,100.0
48667,100.0
48700,100.0
48733,100.0
48767,100.0
48800,101.6949
48833,101.6949
48867,111.8644
48900,111.8644
48933,111.8644
48967,113.6842
49000,113.6842
49033,113.6842
49067,113.6842
49100,113.6842
49133,113.6842
49167,113.6842
49200,113.6842
49233,113.6842
49267,114.7059
49300,113.089
49333,113.089
49367,113.089
49400,113.089
49433,113.089
49467,113.089
49500,113.089
49533,113.089
49567,113.089
49600,113.089
49633,113.089
49667,113.089
49700,113.089
49733,121.3483
49767,121.3483
49800,121.3483
49833,121.3483
49867,121.3483
49900,121.3483
49933,121.3483
49967,121.3483
50000,121.3483
50033,121.3483
50067,121.3483
50100,121.3483
50133,121.3483
50167,121.3483
50200,121.875
50233,121.875
50267,121.875
50300,121.875
50333,121.875
50367,121.875
50400,121.875
50433,121.875
50467,121.875
50500,121.875
50533,121.875
50567,121.875
50600,121.875
50633,122.7273
50667,122.7273
50700,122.7273
50733,121.875
50767,121.875
50800,121.875
50833,121.875
50867,121.875
50900,121.875
50933,121.875
50967,121.875
51000,121.875
51033,121.875
51067,121.875
51100,121.875
51133,121.875
51167,122.0339
51200,122.5131
51233,122.5131
51267,121.875
51300,121.875
51333,121.875
51367,121.875
51400,121.875
51433,121.875
51467,121.875
51500,121.875
51533,121.875
51567,121.875
51600,121.875
51633,121.875
51667,122.7273
51700,122.7273
51733,122.5131
51767,122.5131
51800,122.5131
51833,122.5131
51867,122.5131
51900,122.5131
51933,122.5131
51967,122.5131
52000,122.5131
52033,122.5131
52067,122.5131
52100,122.5131
52133,122.5131
52167,122.5131
52200,123.4286
52233,123.1579
52267,123.1579
52300,123.1579
52333,123.1579
52367,123.1579
52400,123.1579
52433,123.1579
52467,123.1579
52500,123.1579
52533,123.1579
52567,123.1579
52600,123.1579
52633,123.1579
52667,123.1579
52700,123.1579
52733,122.5131
52767,122.5131
52800,122.5131
52833,122.5131
52867,122.5131
52900,122.5131
52933,122.5131
52967,122.5131
53000,122.5131
53033,122.5131
53067,122.5131
53100,122.5131
53133,122.5131
53167,122.5131
53200,122.0339
53233,122.0339
53267,121.2435
53300,121.2435
53333,121.2435
53367,121.2435
53400,121.2435
53433,121.2435
53467,121.2435
53500,121.2435
53533,121.2435
53567,121.2435
53600,121.2435
53633,121.2435
53667,121.3483
53700,121.3483
53733,121.3483
53767,121.2435
53800,121.2435
53833,121.2435
53867,121.2435
53900,121.2435
53933,121.2435
53967,121.2435
54000,121.2435
54033,121.2435
54067,121.2435
54100,121.2435
54133,121.2435
54167,120.6704
54200,120.6704
54233,120.6704
54267,120.6704
54300,120.0
54333,120.0
54367,120.0
54400,120.0
54433,120.0
54467,120.0
54500,120.0
54533,120.0
54567,120.0
54600,120.0
54633,120.0
54667,120.0
54700,120.0
54733,120.0
54767,120.0
54800,120.0
54833,120.0
54867,120.0
54900,120.0
54933,120.0
54967,120.0
55000,120.0
55033,120.0
55067,120.0
55100,120.0
55133,120.0
55167,120.0
55200,120.0
55233,120.0
55267,120.0
55300,120.0
55333,120.0
55367,120.0
55400,120.0
55433,120.0
55467,120.0
55500,120.0
55533,120.0
55567,120.0
55600,120.0
55633,119.337
55667,119.337
55700,119.337
55733,119.337
55767,119.337
55800,119.337
55833,120.6186
55867,120.6186
55900,120.6186
55933,120.6186
55967,120.6186
56000,120.6186
56033,120.6186
56067,120.6186
56100,120.0
56133,120.0
56167,121.2435
56200,121.2435
56233,121.2435
56267,121.2435
56300,121.2435
56333,121.2435
56367,121.2435
56400,121.2435
56433,121.2435
56467,121.2435
56500,121.2435
56533,121.2435
56567,121.3483
56600,121.3483
56633,121.3483
56667,121.2435
56700,121.2435
56733,121.2435
56767,121.2435
56800,121.2435
56833,121.2435
56867,121.2435
56900,121.2435
56933,121.2435
56967,121.2435
57000,121.2435
57033,121.2435
57067,121.3483
57100,121.3483
57133,121.3483
57167,121.2435
57200,121.2435
57233,121.2435
57267,121.2435
57300,121.2435
57333,121.2435
57367,121.2435
57400,121.2435
57433,121.2435
57467,121.2435
57500,121.2435
57533,121.2435
57567,121.3483
57600,121.3483
57633,121.3483
57667,121.2435
57700,121.2435
57733,121.2435
57767,121.2435
57800,121.2435
57833,121.2435
57867,121.2435
57900,121.2435
57933,121.2435
57967,121.2435
58000,121.2435
58033,121.2435
58067,121.3483
58100,121.3483
58133,121.3483
58167,121.2435
58200,121.2435
58233,121.2435
58267,121.2435
58300,121.2435
58333,121.2435
58367,121.2435
58400,121.2435
58433,121.2435
58467,121.2435
58500,121.2435
58533,121.2435
58567,121.3483
58600,121.3483
58633,121.3483
58667,121.3483
58700,120.6186
58733,120.6186
58767,120.6186
58800,120.6186
58833,120.6186
58867,120.6186
58900,120.6186
58933,120.6186
58967,120.6186
59000,120.6186
59033,120.6186
59067,120.6704
59100,120.6704
59133,120.6704
59167,120.6704
59200,120.6186
59233,120.6186
59267,120.0
59300,120.0
59333,120.0
59367,120.0
59400,120.0
59433,120.0
59467,120.0
59500,120.0
59533,120.0
59567,120.6704
59600,120.6704
59633,120.6704
59667,120.6704
59700,121.2435
59733,121.2435
59767,121.2435
59800,121.2435
59833,121.2435
59867,121.2435
59900,121.2435
59933,121.2435
59967,121.2435
60000,121.2435
60033,121.2435
60067,121.2435
60100,121.3483
60133,121.3483
60167,121.3483
60200,121.2435
60233,121.2435
60267,121.2435
60300,121.2435
60333,121.2435
60367,121.2435
60400,121.2435
60433,121.2435
60467,121.2435
60500,121.2435
60533,121.2435
60567,121.2435
60600,122.0339
60633,122.0339
60667,122.0339
60700,122.0339
60733,121.2435
60767,121.2435
60800,121.2435
60833,121.2435
60867,121.2435
60900,121.2435
60933,121.2435
60967,121.2435
61000,121.2435
61033,121.2435
61067,121.2435
61100,121.2435
61133,121.3483
61167,121.3483
61200,121.875
61233,121.875
61267,121.875
61300,121.875
61333,121.875
61367,121.875
61400,121.875
61433,121.875
61467,121.875
61500,121.875
61533,121.875
61567,121.875
61600,121.875
61633,122.0339
61667,122.0339
61700,121.875
61733,121.875
61767,121.875
61800,121.875
61833,121.875
61867,121.875
61900,121.875
61933,121.875
61967,121.875
62000,121.875
62033,121.875
62067,121.875
62100,121.875
62133,120.6704
62167,121.2435
62200,121.2435
62233,121.2435
62267,121.2435
62300,121.2435
62333,121.2435
62367,121.2435
62400,121.2435
62433,121.2435
62467,121.2435
62500,121.2435
62533,121.2435
62567,120.0
62600,120.0
62633,120.6186
62667,120.6186
62700,120.6186
62733,120.6186
62767,120.6186
62800,120.6186
62833,120.6186
62867,120.6186
62900,120.6186
62933,120.6186
62967,120.6186
63000,120.6704
63033,120.6704
63067,120.6704
63100,120.6704
63133,120.6704
63167,120.0
63200,120.0
63233,120.0
63267,120.0
63300,120.0
63333,120.0
63367,120.0
63400,120.0
63433,120.0
63467,120.0
63500,120.0
63533,120.0
63567,120.0
63600,120.0
63633,120.0
63667,120.0
63700,120.0
63733,120.0
63767,120.0
63800,120.0
63833,120.0
63867,120.0
63900,120.0
63933,115.2709
63967,115.2709
64000,114.8936
64033,114.8936
64067,114.8936
64100,114.8936
64133,114.8936
64167,114.8936
64200,114.8936
64233,114.8936
64267,114.8936
64300,114.8936
64333,114.8936
64367,114.8936
64400,114.8936
64433,115.2709
64467,115.2709
64500,114.8936
64533,114.8936
64567,114.8936
64600,114.8936
64633,114.8936
64667,114.8936
64700,114.8936
64733,114.8936
64767,114.8936
64800,114.8936
64833,114.8936
64867,114.8936
64900,114.8936
64933,115.2709
64967,115.2709
65000,115.508
65033,115.508
65067,115.508
65100,115.508
65133,115.508
65167,115.508
65200,115.508
65233,115.508
65267,116.129
65300,116.129
65333,116.129
65367,116.129
65400,116.129
65433,116.7568
65467,116.7568
65500,116.7568
65533,113.924
65567,113.924
65600,113.924
65633,114.6497
65667,114.6497
65700,102.0619
65733,102.0619
65767,102.0619
65800,102.0619
65833,102.0619
65867,102.0619
65900,102.0619
65933,102.0619
65967,102.0619
66000,92.78351
66033,92.78351
66067,90.0
66100,90.0
66133,90.0
66167,90.0
66200,90.0
66233,90.0
66267,90.0
66300,90.0
66333,90.0
66367,90.0
66400,90.0
66433,90.0
66467,90.0
66500,90.0
66533,87.27273000000002
66567,87.27273000000002
66600,87.27273000000002
66633,87.27273000000002
66667,87.27273000000002
66700,87.27273000000002
66733,82.65306
66767,82.65306
66800,82.65306
66833,82.65306
66867,82.65306
66900,82.65306
66933,82.65306
66967,82.65306
67000,82.65306
67033,79.55801
67067,79.55801
67100,79.55801
67133,79.55801
67167,79.55801
67200,79.55801
67233,79.55801
67267,79.55801
67300,79.55801
67333,79.55801
67367,79.55801
67400,79.55801
67433,79.55801
67467,79.55801
67500,79.55801
67533,76.82927
67567,76.82927
67600,76.82927
67633,76.82927
67667,76.82927
67700,76.82927
67733,76.82927
67767,76.82927
67800,73.46939
67833,73.46939
67867,64.28571
67900,64.28571
67933,64.28571
67967,64.28571
68000,64.28571
68033,64.28571
68067,64.28571
68100,59.01639
68133,59.01639
68167,59.01639
68200,59.01639
68233,59.34066
68267,59.34066
68300,59.34066
68333,59.34066
68367,59.34066
68400,59.34066
68433,59.34066
68467,59.34066
68500,59.34066
68533,58.44156
68567,58.44156
68600,58.44156
68633,58.44156
68667,58.44156
68700,58.44156
68733,58.44156
68767,58.44156
68800,58.37838000000001
68833,58.37838000000001
68867,58.37838000000001
68900,58.37838000000001
68933,58.37838000000001
68967,58.37838000000001
69000,58.37838000000001
69033,58.37838000000001
69067,58.37838000000001
69100,58.37838000000001
69133,58.37838000000001
69167,58.37838000000001
69200,58.37838000000001
69233,58.37838000000001
69267,58.37838000000001
69300,58.37838000000001
69333,58.37838000000001
69367,58.37838000000001
69400,58.37838000000001
69433,58.37838000000001
69467,58.82353000000001
69500,58.82353000000001
69533,58.82353000000001
69567,58.82353000000001
69600,58.82353000000001
69633,58.82353000000001
69667,58.82353000000001
69700,58.82353000000001
69733,58.82353000000001
69767,59.34066
69800,59.34066
69833,59.01639
69867,59.01639
69900,59.01639
69933,59.01639
69967,59.01639
70000,59.01639
70033,59.01639
70067,59.01639
70100,59.01639
70133,59.01639
70167,59.01639
70200,59.01639
70233,59.01639
70267,59.01639
70300,59.01639
70333,59.01639
70367,59.01639
70400,58.69565
70433,58.69565
70467,58.69565
70500,59.01639
70533,58.06452
70567,58.06452
70600,58.06452
70633,58.06452
70667,58.06452
70700,58.06452
70733,58.06452
70767,58.06452
70800,58.06452
70833,58.06452
70867,58.06452
70900,58.06452
70933,58.06452
70967,58.06452
71000,58.06452
71033,58.06452
71067,58.06452
71100,58.06452
71133,58.06452
71167,58.06452
71200,58.06452
71233,58.06452
71267,58.06452
71300,58.06452
71333,58.06452
71367,58.06452
71400,58.06452
71433,58.06452
71467,58.06452
71500,58.06452
71533,58.06452
71567,58.06452
71600,58.06452
71633,58.06452
71667,55.55556
71700,55.55556
71733,55.55556
71767,55.55556
71800,55.55556
71833,55.21473
71867,55.21473
71900,54.87805
71933,54.87805
71967,54.87805
72000,54.87805
72033,54.87805
72067,54.87805
72100,54.87805
72133,54.87805
72167,54.87805
72200,54.87805
72233,54.87805
72267,54.87805
72300,54.87805
72333,54.87805
72367,54.87805
72400,54.87805
72433,54.87805
72467,54.54546
72500,54.54546
72533,54.54546
72567,54.54546
72600,54.13534
72633,54.13534
72667,54.13534
72700,53.73134
72733,53.73134
72767,53.73134
72800,53.73134
72833,53.73134
72867,53.73134
72900,48.12834
72933,48.12834
72967,48.12834
73000,48.12834
73033,48.12834
73067,48.12834
73100,48.12834
73133,48.12834
73167,48.12834
73200,48.12834
73233,48.12834
73267,48.12834
73300,48.12834
73333,48.12834
73367,48.12834
73400,48.12834
73433,48.12834
73467,48.12834
73500,46.15385
73533,46.15385
73567,46.15385
73600,46.15385
73633,46.15385
73667,46.15385
73700,46.15385
73733,46.15385
73767,46.15385
73800,46.15385
73833,46.15385
73867,46.15385
73900,46.15385
73933,46.15385
73967,47.87234
74000,47.87234
74033,47.87234
74067,47.87234
74100,47.87234
74133,47.87234
74167,47.87234
74200,47.87234
74233,47.87234
74267,47.87234
74300,47.87234
74333,47.87234
74367,47.87234
74400,47.87234
74433,47.87234
74467,47.87234
74500,47.87234
74533,45.85987
74567,45.85987
74600,45.85987
74633,45.85987
74667,45.85987
74700,45.85987
74733,45.85987
74767,45.85987
74800,45.85987
74833,45.85987
74867,45.85987
74900,45.85987
74933,45.85987
74967,45.85987
75000,45.85987
75033,45.85987
75067,45.85987
75100,47.12042
75133,47.12042
75167,47.12042
75200,47.12042
75233,47.12042
75267,47.12042
75300,47.12042
75333,47.12042
75367,47.12042
75400,47.12042
75433,47.12042
75467,47.12042
75500,47.12042
75533,47.12042
75567,45.0
75600,45.0
75633,45.0
75667,45.0
75700,45.0
75733,45.0
75767,45.0
75800,45.0
75833,45.0
75867,45.0
75900,45.0
75933,45.0
75967,45.0
76000,45.0
76033,47.87234
76067,47.87234
76100,47.87234
76133,47.87234
76167,47.87234
76200,47.87234
76233,47.87234
76267,47.87234
76300,47.87234
76333,47.87234
76367,47.87234
76400,47.87234
76433,47.87234
76467,47.87234
76500,47.87234
76533,47.87234
76567,47.87234
76600,49.65517
76633,49.65517
76667,49.65517
76700,49.65517
76733,49.65517
76767,50.0
76800,50.0
76833,50.0
76867,50.0
76900,50.0
76933,50.0
76967,52.02312
77000,52.02312
77033,52.02312
77067,52.02312
77100,52.02312
77133,52.02312
77167,51.72414000000001
77200,51.72414000000001
77233,51.72414000000001
77267,51.72414000000001
77300,51.72414000000001
77333,51.72414000000001
77367,51.72414000000001
77400,51.72414000000001
77433,51.72414000000001
77467,51.72414000000001
77500,51.72414000000001
77533,51.72414000000001
77567,51.72414000000001
77600,51.72414000000001
77633,51.72414000000001
77667,51.72414000000001
77700,51.72414000000001
77733,51.72414000000001
77767,51.72414000000001
77800,51.72414000000001
77833,51.72414000000001
77867,51.72414000000001
77900,51.72414000000001
77933,51.72414000000001
77967,52.94118
78000,59.21053000000001
78033,59.21053000000001
78067,59.21053000000001
78100,59.21053000000001
78133,59.21053000000001
78167,59.21053000000001
78200,58.82353000000001
78233,58.82353000000001
78267,58.82353000000001
78300,58.82353000000001
78333,58.82353000000001
78367,58.82353000000001
78400,58.82353000000001
78433,58.82353000000001
78467,58.82353000000001
78500,58.82353000000001
78533,58.82353000000001
78567,58.82353000000001
78600,58.82353000000001
78633,58.82353000000001
78667,58.82353000000001
78700,58.82353000000001
78733,58.82353000000001
78767,58.82353000000001
78800,58.82353000000001
78833,58.82353000000001
78867,58.82353000000001
78900,58.82353000000001
78933,58.82353000000001
78967,58.82353000000001
79000,58.82353000000001
79033,58.82353000000001
79067,58.37838000000001
79100,58.69565
79133,58.69565
79167,58.69565
79200,58.69565
79233,58.69565
79267,58.69565
79300,58.69565
79333,58.69565
79367,58.69565
79400,58.69565
79433,58.69565
79467,58.69565
79500,58.69565
79533,58.69565
79567,58.37838000000001
79600,58.37838000000001
79633,58.37838000000001
79667,58.37838000000001
79700,58.37838000000001
79733,58.06452
79767,58.06452
79800,58.06452
79833,58.06452
79867,58.06452
79900,58.06452
79933,58.06452
79967,58.06452
80000,58.06452
80033,58.06452
80067,58.06452
80100,58.37838000000001
80133,58.37838000000001
80167,58.37838000000001
80200,58.37838000000001
80233,58.37838000000001
80267,58.37838000000001
80300,58.37838000000001
80333,58.37838000000001
80367,58.37838000000001
80400,58.37838000000001
80433,58.37838000000001
80467,58.37838000000001
80500,58.37838000000001
80533,58.37838000000001
80567,58.37838000000001
80600,58.06452
80633,58.06452
80667,58.06452
80700,58.06452
80733,58.82353000000001
80767,58.82353000000001
80800,58.82353000000001
80833,58.82353000000001
80867,58.82353000000001
80900,58.82353000000001
80933,58.82353000000001
80967,58.82353000000001
81000,58.82353000000001
81033,58.82353000000001
81067,58.82353000000001
81100,58.82353000000001
81133,58.82353000000001
81167,58.06452
81200,58.06452
81233,58.06452
81267,58.06452
81300,58.06452
81333,58.06452
81367,58.06452
81400,58.06452
81433,58.06452
81467,58.06452
81500,58.06452
81533,58.06452
81567,58.06452
81600,58.06452
81633,58.06452
81667,58.06452
81700,58.06452
81733,58.06452
81767,58.06452
81800,58.06452
81833,58.06452
81867,58.06452
81900,58.06452
81933,58.06452
81967,58.06452
82000,58.06452
82033,58.06452
82067,58.06452
82100,58.06452
82133,58.06452
82167,58.06452
82200,58.06452
82233,58.06452
82267,57.44681
82300,57.44681
82333,57.44681
82367,57.44681
82400,57.44681
82433,57.44681
82467,57.44681
82500,57.44681
82533,57.44681
82567,57.44681
82600,57.44681
82633,57.44681
82667,57.44681
82700,57.44681
82733,57.44681
82767,57.44681
82800,57.44681
82833,56.25
82867,56.25
82900,56.25
82933,56.25
82967,56.25
83000,56.25
83033,56.25
83067,56.25
83100,56.25
83133,56.25
83167,56.25
83200,56.25
83233,56.25
83267,56.84211
83300,56.84211
83333,56.84211
83367,56.84211
83400,56.84211
83433,56.84211
83467,56.84211
83500,56.84211
83533,56.84211
83567,56.84211
83600,56.84211
83633,56.84211
83667,56.84211
83700,56.84211
83733,56.84211
83767,56.96202
83800,56.96202
83833,57.32484
83867,57.32484
83900,57.32484
83933,57.32484
83967,57.32484
84000,57.32484
84033,57.32484
84067,57.32484
84100,57.32484
84133,57.32484
84167,57.32484
84200,57.32484
84233,57.32484
84267,57.32484
84300,57.32484
84333,56.84211
84367,56.84211
84400,56.84211
84433,56.84211
84467,56.84211
84500,56.84211
84533,56.84211
84567,56.84211
84600,56.84211
84633,56.84211
84667,56.84211
84700,56.84211
84733,56.84211
84767,56.84211
84800,56.84211
84833,56.96202
84867,56.96202
84900,56.96202
84933,56.96202
84967,56.96202
85000,56.96202
85033,56.60378000000001
85067,56.60378000000001
85100,56.60378000000001
85133,56.60378000000001
85167,56.60378000000001
85200,56.60378000000001
85233,56.60378000000001
85267,56.60378000000001
85300,57.44681
85333,57.44681
85367,57.44681
85400,57.44681
85433,57.44681
85467,57.44681
85500,57.44681
85533,57.44681
85567,57.44681
85600,57.44681
85633,57.44681
85667,57.44681
85700,57.44681
85733,57.44681
85767,57.44681
85800,57.44681
85833,57.44681
85867,57.32484
85900,57.32484
85933,57.32484
85967,57.32484
86000,57.32484
86033,57.32484
86067,57.32484
86100,59.66851
86133,59.66851
86167,59.66851
86200,59.66851
86233,59.66851
86267,59.34066
86300,59.34066
86333,59.34066
86367,59.34066
86400,59.34066
86433,59.34066
86467,59.34066
86500,59.34066
86533,59.34066
86567,59.34066
86600,59.34066
86633,59.34066
86667,59.34066
86700,59.34066
86733,59.34066
86767,59.34066
86800,59.34066
86833,59.34066
86867,59.34066
86900,60.0
86933,60.0
86967,60.0
87000,60.0
87033,60.40268
87067,60.67416
87100,60.67416
87133,61.01695
87167,61.01695
87200,61.01695
87233,61.01695
87267,60.67416
87300,61.01695
87333,61.01695
87367,61.01695
87400,61.01695
87433,61.01695
87467,61.01695
87500,61.01695
87533,61.01695
87567,61.01695
87600,61.01695
87633,61.01695
87667,61.01695
87700,61.01695
87733,61.01695
87767,61.01695
87800,61.01695
87833,61.01695
87867,61.01695
87900,61.01695
87933,61.01695
87967,61.22449
88000,61.22449
88033,61.01695
88067,61.01695
88100,61.01695
88133,61.01695
88167,61.01695
88200,61.01695
88233,61.01695
88267,61.01695
88300,61.01695
88333,61.01695
88367,61.01695
88400,61.01695
88433,61.01695
88467,61.01695
88500,61.01695
88533,61.01695
88567,61.01695
88600,61.01695
88633,61.01695
88667,61.01695
88700,61.01695
88733,61.01695
88767,61.01695
88800,61.01695
88833,61.01695
88867,61.01695
88900,61.01695
88933,61.01695
88967,61.22449
89000,61.36364
89033,61.36364
89067,61.36364
89100,61.36364
89133,61.36364
89167,61.36364
89200,61.36364
89233,61.36364
89267,61.36364
89300,61.36364
89333,61.36364
89367,61.36364
89400,61.36364
89433,61.36364
89467,61.36364
89500,61.36364
89533,61.36364
89567,61.36364
89600,61.36364
89633,61.36364
89667,61.36364
89700,61.36364
89733,61.36364
89767,61.01695
89800,61.01695
89833,61.01695
89867,61.01695
89900,61.01695
89933,61.36364
89967,63.52941
90000,63.52941
90033,63.52941
90067,63.52941
90100,63.52941
90133,63.52941
90167,63.52941
90200,63.52941
90233,63.52941
90267,63.52941
90300,63.52941
90333,63.52941
90367,63.52941
90400,63.52941
90433,63.52941
90467,63.52941
90500,63.52941
90533,63.52941
90567,63.52941
90600,63.52941
90633,63.52941
90667,63.52941
90700,63.52941
90733,63.52941
90767,63.52941
90800,63.52941
90833,63.52941
90867,63.52941
90900,63.63636
90933,63.31658
90967,63.31658
91000,63.63636
91033,63.31658
91067,63.31658
91100,63.31658
91133,63.52941
91167,63.52941
91200,63.52941
91233,63.52941
91267,63.52941
91300,63.52941
91333,63.52941
91367,63.52941
91400,63.52941
91433,63.52941
91467,63.52941
91500,63.52941
91533,63.52941
91567,63.52941
91600,63.52941
91633,63.52941
91667,63.52941
91700,63.52941
91733,63.52941
91767,63.52941
91800,63.52941
91833,63.52941
91867,63.52941
91900,63.52941
91933,63.0
91967,63.0
92000,63.0
92033,63.0
92067,63.0
92100,61.71429000000001
92133,61.71429000000001
92167,61.71429000000001
92200,61.71429000000001
92233,61.71429000000001
92267,62.06896999999999
92300,62.06896999999999
92333,62.06896999999999
92367,62.06896999999999
92400,62.06896999999999
92433,62.06896999999999
92467,62.06896999999999
92500,62.06896999999999
92533,62.06896999999999
92567,62.06896999999999
92600,62.06896999999999
92633,62.06896999999999
92667,62.06896999999999
92700,62.06896999999999
92733,62.06896999999999
92767,62.06896999999999
92800,62.42775
92833,62.42775
92867,62.42775
92900,62.06896999999999
92933,62.06896999999999
92967,61.71429000000001
93000,61.71429000000001
93033,61.71429000000001
93067,61.71429000000001
93100,61.71429000000001
93133,61.71429000000001
93167,61.71429000000001
93200,61.71429000000001
93233,61.71429000000001
93267,61.71429000000001
93300,61.71429000000001
93333,61.71429000000001
93367,61.71429000000001
93400,61.71429000000001
93433,61.71429000000001
93467,61.71429000000001
93500,62.06896999999999
93533,62.06896999999999
93567,62.06896999999999
93600,62.06896999999999
93633,62.06896999999999
93667,62.06896999999999
93700,62.06896999999999
93733,62.06896999999999
93767,51.72414000000001
93800,51.72414000000001
93833,51.72414000000001
93867,53.20197
93900,53.20197
93933,52.94118
93967,52.94118
94000,52.94118
94033,52.94118
94067,52.94118
94100,52.94118
94133,53.25444
94167,53.25444
94200,53.25444
94233,53.25444
94267,53.25444
94300,53.25444
94333,53.25444
94367,53.25444
94400,53.25444
94433,53.25444
94467,53.57143000000001
94500,53.57143000000001
94533,53.89222
94567,53.89222
94600,53.89222
94633,53.89222
94667,53.89222
94700,56.25
94733,56.25
94767,56.25
94800,56.25
94833,56.25
94867,56.25
94900,56.25
94933,56.25
94967,56.25
95000,56.5445
95033,56.5445
95067,56.84211
95100,56.84211
95133,56.84211
95167,56.60378000000001
95200,56.60378000000001
95233,56.60378000000001
95267,56.60378000000001
95300,56.60378000000001
95333,56.60378000000001
95367,56.60378000000001
95400,56.60378000000001
95433,56.60378000000001
95467,56.60378000000001
95500,56.60378000000001
95533,56.60378000000001
95567,56.60378000000001
95600,57.75401
95633,57.75401
95667,57.75401
95700,57.75401
95733,57.75401
95767,57.75401
95800,57.75401
95833,57.75401
95867,57.75401
95900,57.75401
95933,57.75401
95967,57.75401
96000,57.75401
96033,57.75401
96067,57.75401
96100,57.75401
96133,57.75401
96167,57.75401
96200,62.5
96233,62.5
96267,67.92453
96300,67.5
96333,67.5
96367,67.5
96400,67.5
96433,62.06896999999999
96467,62.06896999999999
96500,62.06896999999999
96533,62.42775
96567,62.42775
96600,62.42775
96633,62.42775
96667,62.42775
96700,62.42775
96733,62.42775
96767,62.42775
96800,62.42775
96833,62.42775
96867,62.42775
96900,62.42775
96933,62.42775
96967,62.42775
97000,62.42775
97033,62.42775
97067,62.42775
97100,62.42775
97133,62.42775
97167,62.42775
97200,62.42775
97233,62.42775
97267,62.42775
97300,62.42775
97333,62.06896999999999
97367,62.06896999999999
97400,62.06896999999999
97433,62.06896999999999
97467,62.06896999999999
97500,62.06896999999999
97533,62.06896999999999
97567,62.06896999999999
97600,62.06896999999999
97633,60.67416
97667,60.67416
97700,60.67416
97733,60.67416
97767,60.67416
97800,60.33519
97833,60.33519
97867,60.33519
97900,60.33519
97933,60.33519
97967,60.33519
98000,60.33519
98033,60.33519
98067,60.33519
98100,60.33519
98133,60.33519
98167,60.33519
98200,60.33519
98233,60.33519
98267,60.33519
98300,60.33519
98333,60.33519
98367,60.33519
98400,60.33519
98433,60.33519
98467,60.33519
98500,63.380280000000006
98533,63.380280000000006
98567,63.380280000000006
98600,63.380280000000006
98633,63.380280000000006
98667,63.380280000000006
98700,63.380280000000006
98733,61.71429000000001
98767,61.71429000000001
98800,61.71429000000001
98833,61.71429000000001
98867,61.71429000000001
98900,61.71429000000001
98933,61.71429000000001
98967,61.71429000000001
99000,61.71429000000001
99033,61.71429000000001
99067,61.71429000000001
99100,61.71429000000001
99133,61.71429000000001
99167,61.71429000000001
99200,61.71429000000001
99233,61.71429000000001
99267,61.71429000000001
99300,61.71429000000001
99333,61.71429000000001
99367,61.71429000000001
99400,61.71429000000001
99433,61.71429000000001
99467,61.71429000000001
99500,61.71429000000001
99533,61.71429000000001
99567,61.71429000000001
99600,61.71429000000001
99633,61.71429000000001
99667,61.71429000000001
99700,61.71429000000001
99733,61.64384
99767,61.64384
99800,63.905330000000006
99833,64.28571
99867,64.28571
99900,69.61326
99933,69.61326
99967,69.61326
100000,69.61326
100033,69.61326
100067,69.61326
100100,70.0
100133,70.0
100167,70.0
100200,70.0
100233,70.0
100267,70.0
100300,70.0
100333,70.0
100367,70.0
100400,73.46939
100433,73.46939
100467,73.46939
100500,73.46939
100533,73.09644
100567,73.09644
100600,73.09644
100633,73.09644
100667,74.11765
100700,74.11765
100733,74.11765
100767,74.11765
100800,74.11765
100833,74.11765
100867,78.26087
100900,78.26087
100933,78.26087
100967,88.04348
101000,88.04348
101033,88.52459
101067,98.36066
101100,98.36066
101133,98.36066
101167,98.36066
101200,98.36066
101233,98.36066
101267,98.36066
101300,98.36066
101333,98.36066
101367,98.36066
101400,98.36066
101433,98.36066
101467,100.0
101500,100.0
101533,100.0
101567,100.0
101600,100.5076
101633,116.4706
101667,116.4706
101700,116.4706
101733,117.1598
101767,117.1598
101800,117.1598
101833,117.1598
101867,117.3913
101900,117.3913
101933,117.3913
101967,117.3913
102000,117.3913
102033,117.3913
102067,117.3913
102100,117.3913
102133,117.3913
102167,117.3913
102200,117.3913
102233,117.3913
102267,117.3913
102300,117.3913
102333,118.1818
102367,118.1818
102400,118.1818
102433,118.1818
102467,118.1818
102500,118.1818
102533,118.1818
102567,120.0
102600,120.0
102633,120.0
102667,120.0
102700,120.0
102733,120.0
102767,120.0
102800,120.0
102833,120.0
102867,119.3878
102900,119.3878
102933,119.3878
102967,119.3878
103000,119.3878
103033,119.3878
103067,119.3878
103100,119.3878
103133,119.3878
103167,120.0
103200,120.0
103233,120.0
103267,120.0
103300,120.0
103333,120.0
103367,120.0
103400,119.3878
103433,119.3878
103467,119.3878
103500,119.3878
103533,119.3878
103567,119.3878
103600,119.3878
103633,119.3878
103667,119.3878
103700,120.0
103733,120.0
103767,120.0
103800,120.0
103833,120.0
103867,120.0
103900,120.0
103933,120.0
103967,120.0
104000,120.0
104033,120.0
104067,120.0
104100,120.0
104133,120.0
104167,120.0
104200,120.0
104233,120.0
104267,120.0
104300,120.0
104333,120.0
104367,120.0
104400,120.0
104433,119.3878
104467,119.3878
104500,119.3878
104533,119.3878
104567,119.3878
104600,119.3878
104633,119.3878
104667,119.3878
104700,119.3878
104733,119.337
104767,119.337
104800,119.337
104833,119.337
104867,119.337
104900,120.0
104933,120.0
104967,120.0
105000,120.0
105033,120.0
105067,120.0
105100,120.0
105133,120.0
105167,120.0
105200,120.0
105233,119.337
105267,119.337
105300,119.337
105333,119.337
105367,119.337
105400,119.3878
105433,119.3878
105467,119.3878
105500,119.3878
105533,119.3878
105567,119.3878
105600,119.3878
105633,119.3878
105667,119.3878
105700,119.337
105733,119.337
105767,119.337
105800,119.337
105833,120.6186
105867,120.6186
105900,120.6186
105933,120.6186
105967,120.6186
106000,120.6186
106033,120.6186
106067,120.6186
106100,120.6186
106133,120.6186
106167,120.6186
106200,120.6704
106233,120.6704
106267,120.6704
106300,120.6704
106333,120.6704
106367,120.6704
106400,121.2435
106433,121.2435
106467,121.2435
106500,121.2435
106533,121.2435
106567,121.2435
106600,121.2435
106633,121.2435
106667,121.2435
106700,122.0339
106733,123.1579
106767,123.1579
106800,123.1579
106833,123.1579
106867,123.1579
106900,123.1579
106933,123.1579
106967,123.1579
107000,123.1579
107033,123.1579
107067,123.1579
107100,123.1579
107133,123.1579
107167,123.1579
107200,124.7525
107233,124.4681
107267,124.4681
107300,124.4681
107333,124.4681
107367,124.4681
107400,124.4681
107433,124.4681
107467,124.4681
107500,124.4681
107533,124.4681
107567,124.4681
107600,124.7525
107633,124.7525
107667,124.7525
107700,125.1337
107733,125.1337
107767,125.1337
107800,125.1337
107833,125.1337
107867,125.1337
107900,125.1337
107933,125.1337
107967,125.1337
108000,125.1337
108033,125.1337
108067,125.1337
108100,124.7525
108133,124.7525
108167,124.7525
108200,125.1337
108233,125.1337
108267,125.1337
108300,125.1337
108333,125.1337
108367,125.1337
108400,125.1337
108433,125.1337
108467,125.1337
108500,125.1337
108533,125.1337
108567,125.1337
108600,125.1337
108633,125.1337
108667,125.1337
108700,124.8555
108733,124.8555
108767,124.8555
108800,124.8555
108833,124.8555
108867,124.8555
108900,114.4509
108933,114.4509
108967,114.4509
109000,113.7931
109033,113.7931
109067,113.7931
109100,113.7931
109133,105.8824
109167,105.3191
109200,105.3191
109233,105.3191
109267,105.3191
109300,105.3191
109333,105.3191
109367,105.3191
109400,105.3191
109433,105.3191
109467,105.3191
109500,95.74468
109533,95.74468
109567,95.74468
109600,95.74468
109633,95.74468
109667,95.74468
109700,93.64162
109733,93.64162
109767,93.64162
109800,93.64162
109833,93.64162
109867,93.64162
109900,93.64162
109933,93.64162
109967,93.64162
110000,93.64162
110033,93.64162
110067,93.64162
110100,93.64162
110133,93.64162
110167,93.64162
110200,91.71974
110233,91.71974
110267,91.71974
110300,91.71974
110333,91.71974
110367,91.71974
110400,91.71974
110433,91.71974
110467,91.71974
110500,91.71974
110533,91.71974
110567,91.71974
110600,91.71974
110633,91.71974
110667,91.71974
110700,91.71974
110733,88.73239000000002
110767,88.73239000000002
110800,88.73239000000002
110833,76.05634
110867,76.05634
110900,76.05634
110933,76.05634
110967,76.05634
111000,76.05634
111033,63.31658
111067,63.31658
111100,63.31658
111133,63.31658
111167,63.31658
111200,63.31658
111233,59.01639
111267,59.01639
111300,59.01639
111333,59.01639
111367,59.01639
111400,59.01639
111433,59.01639
111467,59.01639
111500,59.01639
111533,59.01639
111567,59.01639
111600,49.18033
111633,49.18033
111667,49.18033
111700,49.18033
111733,49.18033
111767,50.34965
111800,50.34965
111833,50.34965
111867,50.34965
111900,50.34965
111933,50.34965
111967,50.34965
112000,50.34965
112033,50.34965
112067,50.34965
112100,50.34965
112133,50.34965
112167,50.84746
112200,50.84746
112233,50.84746
112267,50.84746
112300,50.84746
112333,50.5618
112367,50.5618
112400,50.5618
112433,50.5618
112467,50.5618
112500,50.5618
112533,50.5618
112567,50.5618
112600,50.5618
112633,50.5618
112667,50.5618
112700,50.5618
112733,50.27933
112767,50.27933
112800,50.27933
112833,50.27933
112867,50.27933
112900,50.27933
112933,50.27933
112967,50.27933
113000,50.27933
113033,50.27933
113067,48.0
113100,48.0
113133,48.0
113167,48.0
113200,48.0
113233,48.0
113267,48.0
113300,48.0
113333,48.0
113367,48.0
113400,48.0
113433,47.87234
113467,47.87234
113500,47.87234
113533,47.87234
113567,47.87234
113600,47.87234
113633,48.12834
113667,48.12834
113700,48.12834
113733,48.12834
113767,48.12834
113800,48.12834
113833,48.12834
113867,48.12834
113900,48.12834
113933,48.12834
113967,48.12834
114000,45.85987
114033,45.85987
114067,45.85987
114100,45.85987
114133,45.85987
114167,45.85987
114200,45.85987
114233,45.85987
114267,45.85987
114300,45.85987
114333,45.85987
114367,45.85987
114400,45.85987
114433,45.85987
114467,47.61905
114500,47.61905
114533,47.61905
114567,47.61905
114600,47.61905
114633,47.61905
114667,47.61905
114700,47.61905
114733,47.61905
114767,47.61905
114800,47.61905
114833,47.61905
114867,47.61905
114900,47.61905
114933,47.61905
114967,47.61905
115000,45.0
115033,45.0
115067,45.0
115100,45.0
115133,45.0
115167,45.0
115200,45.0
115233,45.0
115267,45.0
115300,45.0
115333,45.0
115367,45.0
115400,45.0
115433,45.0
115467,45.0
115500,45.0
115533,46.875
115567,46.875
115600,46.875
115633,46.875
115667,46.875
115700,46.875
115733,46.875
115767,46.875
115800,46.875
115833,46.875
115867,46.875
115900,46.875
115933,46.875
115967,54.21686999999999
116000,54.21686999999999
116033,54.21686999999999
116067,54.21686999999999
116100,54.21686999999999
116133,54.21686999999999
116167,54.21686999999999
116200,54.21686999999999
116233,54.21686999999999
116267,54.21686999999999
116300,54.21686999999999
116333,54.21686999999999
116367,54.21686999999999
116400,54.21686999999999
116433,54.21686999999999
116467,55.6701
116500,55.6701
116533,55.6701
116567,55.6701
116600,55.6701
116633,55.6701
116667,55.38462
116700,55.38462
116733,55.38462
116767,55.38462
116800,55.6701
116833,54.87805
116867,54.87805
116900,54.87805
116933,54.87805
116967,54.87805
117000,54.87805
117033,54.87805
117067,54.87805
117100,54.87805
117133,54.87805
117167,54.87805
117200,54.87805
117233,54.87805
117267,54.87805
117300,54.87805
117333,56.84211
117367,56.84211
117400,56.84211
117433,56.84211
117467,56.84211
117500,56.84211
117533,56.84211
117567,57.14286
117600,57.14286
117633,57.14286
117667,57.14286
117700,57.14286
117733,57.14286
117767,57.14286
117800,57.14286
117833,58.44156
117867,58.44156
117900,58.44156
117933,58.44156
117967,58.44156
118000,58.44156
118033,58.44156
118067,58.44156
118100,58.44156
118133,60.33519
118167,60.67416
118200,60.67416
118233,60.67416
118267,60.67416
118300,60.67416
118333,60.67416
118367,60.67416
118400,60.67416
118433,60.67416
118467,60.67416
118500,60.67416
118533,60.67416
118567,60.67416
118600,60.67416
118633,60.67416
118667,60.67416
118700,60.67416
118733,60.67416
118767,60.67416
118800,60.67416
118833,60.67416
118867,60.67416
118900,60.67416
118933,60.67416
118967,61.76471
119000,64.67066
119033,64.67066
119067,64.67066
119100,64.67066
119133,64.67066
119167,64.67066
119200,64.67066
119233,64.28571
119267,64.28571
119300,64.28571
119333,64.28571
119367,64.28571
119400,64.28571
119433,64.28571
119467,64.28571
119500,64.28571
119533,64.28571
119567,64.28571
119600,64.28571
119633,64.28571
119667,64.28571
119700,64.28571
119733,64.28571
119767,64.28571
119800,64.28571
119833,64.28571
119867,64.28571
119900,64.28571
119933,64.28571
119967,63.95939
120000,63.95939
120033,63.95939
120067,63.95939
120100,63.63636
120133,63.63636
120167,63.63636
120200,63.63636
120233,64.67066
120267,64.67066
120300,65.06024000000001
120333,65.06024000000001
120367,65.06024000000001
120400,65.06024000000001
120433,65.06024000000001
120467,65.06024000000001
120500,65.06024000000001
120533,65.06024000000001
120567,65.06024000000001
120600,65.06024000000001
120633,65.06024000000001
120667,65.06024000000001
120700,65.06024000000001
120733,65.06024000000001
120767,65.06024000000001
120800,65.06024000000001
120833,65.625
120867,65.625
120900,65.625
120933,65.625
120967,65.625
121000,65.625
121033,65.625
121067,65.625
121100,65.625
121133,65.625
121167,65.625
121200,65.625
121233,65.625
121267,67.5
121300,67.5
121333,67.5
121367,67.5
121400,67.5
121433,67.5
121467,67.5
121500,67.5
121533,67.5
121567,67.5
121600,67.5
121633,67.5
121667,67.5
121700,67.5
121733,67.74194
121767,67.74194
121800,67.74194
121833,67.74194
121867,67.74194
121900,67.74194
121933,67.74194
121967,67.74194
122000,67.74194
122033,67.74194
122067,67.74194
122100,67.74194
122133,67.74194
122167,67.74194
122200,68.10811
122233,68.10811
122267,68.10811
122300,68.10811
122333,68.10811
122367,68.78981
122400,68.78981
122433,68.78981
122467,68.78981
122500,68.78981
122533,68.78981
122567,68.78981
122600,68.78981
122633,68.78981
122667,67.74194
122700,67.74194
122733,67.74194
122767,67.74194
122800,67.74194
122833,67.74194
122867,67.74194
122900,67.74194
122933,67.74194
122967,67.74194
123000,67.74194
123033,67.74194
123067,67.74194
123100,67.74194
123133,67.74194
123167,67.74194
123200,67.74194
123233,67.74194
123267,67.74194
123300,67.5
123333,67.5
123367,69.61326
123400,69.61326
123433,69.61326
123467,67.5
123500,68.10811
123533,68.10811
123567,68.10811
123600,68.85246
123633,69.23076999999999
123667,69.61326
123700,69.61326
123733,75.0
123767,75.0
123800,75.0
123833,75.0
123867,75.0
123900,75.0
123933,75.0
123967,75.0
124000,75.0
124033,75.0
124067,75.0
124100,74.6114
124133,75.0
124167,75.0
124200,75.0
124233,75.0
124267,79.12088
124300,79.12088
124333,79.12088
124367,79.12088
124400,79.12088
124433,79.12088
124467,79.12088
124500,79.12088
124533,79.12088
124567,79.12088
124600,79.12088
124633,79.12088
124667,79.12088
124700,82.23351
124733,82.23351
124767,82.23351
124800,82.23351
124833,82.23351
124867,82.23351
124900,82.23351
124933,82.23351
124967,84.21053
125000,84.21053
125033,84.21053
125067,83.72093000000002
125100,83.72093000000002
125133,87.56756999999998
125167,87.56756999999998
125200,87.56756999999998
125233,87.56756999999998
125267,107.027
125300,107.027
125333,107.027
125367,107.027
125400,107.027
125433,107.027
125467,107.027
125500,107.027
125533,107.027
125567,107.027
125600,107.027
125633,108.0
125667,108.0
125700,108.5427
125733,108.5427
125767,108.5427
125800,113.2076
125833,113.2076
125867,113.2076
125900,113.2076
125933,113.2076
125967,113.2076
126000,113.2076
126033,113.2076
126067,113.2076
126100,113.2076
126133,90.56604
126167,90.56604
126200,91.13924
126233,79.74683
126267,79.74683
126300,79.74683
126333,79.74683
126367,79.74683
126400,73.46939
126433,73.46939
126467,73.46939
126500,73.46939
126533,73.46939
126567,73.46939
126600,73.46939
126633,73.46939
126667,73.46939
126700,75.4491
126733,75.4491
126767,75.4491
126800,75.4491
126833,75.4491
126867,75.4491
126900,75.4491
126933,75.4491
126967,75.4491
127000,75.4491
127033,75.4491
127067,75.4491
127100,75.4491
127133,75.4491
127167,75.4491
127200,75.4491
127233,75.4491
127267,75.4491
127300,75.4491
127333,75.4491
127367,75.4491
127400,73.09644
127433,73.09644
127467,73.09644
127500,73.09644
127533,73.09644
127567,73.09644
127600,73.09644
127633,73.09644
127667,74.55621
127700,74.55621
127733,63.905330000000006
127767,63.905330000000006
127800,63.905330000000006
127833,63.905330000000006
127867,63.905330000000006
127900,63.905330000000006
127933,63.905330000000006
127967,63.905330000000006
128000,63.905330000000006
128033,63.905330000000006
128067,63.905330000000006
128100,63.905330000000006
128133,63.905330000000006
128167,63.905330000000006
128200,63.905330000000006
128233,63.905330000000006
128267,63.905330000000006
128300,63.905330000000006
128333,63.905330000000006
128367,63.63636
128400,63.63636
128433,63.63636
128467,63.63636
128500,63.63636
128533,63.63636
128567,63.63636
128600,63.905330000000006
128633,63.905330000000006
128667,63.905330000000006
128700,63.905330000000006
128733,63.905330000000006
128767,63.905330000000006
128800,63.905330000000006
128833,63.905330000000006
128867,63.905330000000006
128900,63.905330000000006
128933,63.905330000000006
128967,63.905330000000006
129000,63.905330000000006
129033,63.905330000000006
129067,63.905330000000006
129100,63.905330000000006
129133,63.905330000000006
129167,63.905330000000006
129200,63.905330000000006
129233,63.905330000000006
129267,63.905330000000006
129300,63.905330000000006
129333,63.63636
129367,63.63636
129400,63.63636
129433,63.63636
129467,63.63636
129500,63.63636
129533,63.63636
129567,60.0
129600,60.0
129633,60.0
129667,60.0
129700,60.0
129733,60.0
129767,60.0
129800,60.0
129833,60.0
129867,60.0
129900,60.0
129933,60.0
129967,60.0
130000,60.0
130033,60.0
130067,60.0
130100,60.0
130133,60.0
130167,59.21053000000001
130200,59.21053000000001
130233,59.21053000000001
130267,59.21053000000001
130300,59.21053000000001
130333,59.34066
130367,59.34066
130400,59.34066
130433,59.34066
130467,59.34066
130500,59.34066
130533,59.34066
130567,59.34066
130600,59.34066
130633,59.34066
130667,59.34066
130700,59.34066
130733,59.34066
130767,59.34066
130800,59.34066
130833,59.34066
130867,59.34066
130900,59.34066
130933,59.34066
130967,59.34066
131000,59.34066
131033,59.34066
131067,59.34066
131100,58.44156
131133,58.44156
131167,58.44156
131200,58.44156
131233,58.44156
131267,58.44156
131300,59.01639
131333,59.01639
131367,59.01639
131400,59.01639
131433,59.01639
131467,59.01639
131500,59.01639
131533,59.01639
131567,59.01639
131600,59.01639
131633,59.01639
131667,59.01639
131700,59.01639
131733,59.01639
131767,59.01639
131800,59.01639
131833,59.01639
131867,59.01639
131900,59.01639
131933,59.01639
131967,59.01639
132000,59.01639
132033,60.81081
132067,60.81081
132100,60.81081
132133,60.81081
132167,60.81081
132200,60.81081
132233,60.81081
132267,61.01695
132300,61.01695
132333,61.01695
132367,61.01695
132400,61.01695
132433,61.01695
132467,61.01695
132500,61.01695
132533,61.01695
132567,61.01695
132600,61.01695
132633,61.01695
132667,61.01695
132700,61.01695
132733,61.01695
132767,61.01695
132800,61.01695
132833,61.01695
132867,61.01695
132900,61.01695
132933,61.01695
132967,61.01695
133000,61.01695
133033,61.01695
133067,61.36364
133100,61.36364
133133,61.36364
133167,61.36364
133200,62.42775
133233,62.42775
133267,62.42775
133300,62.42775
133333,62.42775
133367,62.42775
133400,62.42775
133433,62.42775
133467,62.42775
133500,62.42775
133533,62.42775
133567,62.42775
133600,62.42775
133633,62.42775
133667,62.42775
133700,62.42775
133733,62.42775
133767,62.42775
133800,62.42775
133833,62.42775
133867,62.42775
133900,62.42775
133933,62.42775
133967,62.42775
134000,62.42775
134033,62.42775
134067,62.42775
134100,62.42775
134133,62.42775
134167,62.68657
134200,62.68657
134233,62.68657
134267,62.7907
134300,62.7907
134333,62.7907
134367,62.42775
134400,62.42775
134433,62.42775
134467,62.42775
134500,62.42775
134533,62.42775
134567,62.42775
134600,62.42775
134633,62.42775
134667,62.42775
134700,62.42775
134733,62.42775
134767,62.42775
134800,62.42775
134833,62.42775
134867,62.42775
134900,62.42775
134933,62.42775
134967,62.42775
135000,62.42775
135033,62.42775
135067,62.42775
135100,62.68657
135133,62.68657
135167,62.68657
135200,62.68657
135233,62.42775
135267,62.42775
135300,62.42775
135333,62.42775
135367,62.06896999999999
135400,62.06896999999999
135433,62.06896999999999
135467,62.06896999999999
135500,62.06896999999999
135533,62.06896999999999
135567,62.06896999999999
135600,62.06896999999999
135633,62.06896999999999
135667,62.06896999999999
135700,62.06896999999999
135733,62.06896999999999
135767,62.06896999999999
135800,62.06896999999999
135833,62.06896999999999
135867,62.06896999999999
135900,62.06896999999999
135933,62.06896999999999
135967,62.06896999999999
136000,62.06896999999999
136033,62.06896999999999
136067,62.06896999999999
136100,62.06896999999999
136133,61.76471
136167,62.06896999999999
136200,62.06896999999999
136233,62.06896999999999
136267,62.06896999999999
136300,62.06896999999999
136333,62.06896999999999
136367,62.06896999999999
136400,62.06896999999999
136433,62.06896999999999
136467,62.06896999999999
136500,62.06896999999999
136533,62.06896999999999
136567,62.06896999999999
136600,62.06896999999999
136633,62.06896999999999
136667,62.06896999999999
136700,62.06896999999999
136733,62.06896999999999
136767,62.06896999999999
136800,62.06896999999999
136833,62.06896999999999
136867,62.06896999999999
136900,62.06896999999999
136933,62.06896999999999
136967,62.06896999999999
137000,62.06896999999999
137033,62.06896999999999
137067,62.06896999999999
137100,62.06896999999999
137133,62.06896999999999
137167,62.06896999999999
137200,61.01695
137233,61.01695
137267,61.01695
137300,61.01695
137333,61.01695
137367,61.01695
137400,61.01695
137433,61.01695
137467,61.01695
137500,61.01695
137533,61.01695
137567,61.01695
137600,61.01695
137633,61.01695
137667,61.01695
137700,61.01695
137733,61.01695
137767,61.01695
137800,61.01695
137833,61.01695
137867,61.01695
137900,61.01695
137933,61.01695
137967,61.01695
138000,61.01695
138033,61.01695
138067,61.01695
138100,61.01695
138133,60.81081
138167,60.81081
138200,60.67416
138233,60.33519
138267,60.33519
138300,60.33519
138333,60.33519
138367,60.33519
138400,60.33519
138433,60.33519
138467,60.33519
138500,60.33519
138533,60.33519
138567,60.33519
138600,60.33519
138633,60.33519
138667,60.33519
138700,60.33519
138733,60.33519
138767,60.33519
138800,60.33519
138833,60.33519
138867,60.33519
138900,60.33519
138933,60.33519
138967,60.33519
139000,60.33519
139033,60.33519
139067,60.33519
139100,59.60265
139133,59.60265
139167,59.60265
139200,59.60265
139233,59.66851
139267,59.66851
139300,59.66851
139333,59.34066
139367,59.34066
139400,59.34066
139433,59.34066
139467,59.34066
139500,59.66851
139533,59.66851
139567,59.66851
139600,59.66851
139633,59.66851
139667,59.66851
139700,59.66851
139733,59.66851
139767,59.66851
139800,59.66851
139833,59.66851
139867,59.66851
139900,59.66851
139933,59.66851
139967,59.66851
140000,59.66851
140033,59.21053000000001
140067,59.21053000000001
140100,59.21053000000001
140133,59.21053000000001
140167,59.21053000000001
140200,59.66851
140233,59.66851
140267,59.66851
140300,59.66851
140333,59.66851
140367,59.66851
140400,59.66851
140433,59.66851
140467,59.66851
140500,59.66851
140533,59.66851
140567,59.66851
140600,59.66851
140633,59.66851
140667,59.66851
140700,59.66851
140733,59.66851
140767,59.66851
140800,59.66851
140833,59.66851
140867,59.66851
140900,59.66851
140933,59.66851
140967,59.66851
141000,60.0
141033,60.0
141067,60.0
141100,61.01695
141133,61.01695
141167,61.01695
141200,61.01695
141233,61.01695
141267,61.01695
141300,61.01695
141333,61.01695
141367,61.01695
141400,61.01695
141433,61.01695
141467,61.01695
141500,61.01695
141533,61.01695
141567,61.01695
141600,61.01695
141633,61.01695
141667,61.01695
141700,61.01695
141733,61.01695
141767,61.01695
141800,61.01695
141833,61.01695
141867,61.01695
141900,61.01695
141933,61.01695
141967,61.01695
142000,61.01695
142033,60.40268
142067,60.67416
142100,60.67416
142133,60.67416
142167,60.67416
142200,60.67416
142233,60.67416
142267,60.67416
142300,60.67416
142333,60.67416
142367,60.67416
142400,60.67416
142433,60.67416
142467,60.67416
142500,61.01695
142533,61.01695
142567,61.01695
142600,61.01695
142633,61.01695
142667,61.01695
142700,61.01695
142733,61.01695
142767,61.01695
142800,61.01695
142833,61.01695
142867,61.01695
142900,61.01695
142933,61.01695
142967,61.01695
143000,61.64384
143033,61.22449
143067,61.22449
143100,61.22449
143133,61.22449
143167,60.33519
143200,60.33519
143233,60.33519
143267,60.33519
143300,60.33519
143333,60.33519
143367,60.33519
143400,60.33519
143433,60.33519
143467,60.33519
143500,60.33519
143533,60.33519
143567,60.33519
143600,60.33519
143633,60.33519
143667,60.33519
143700,60.33519
143733,60.33519
143767,60.33519
143800,60.33519
143833,60.33519
143867,60.33519
143900,60.33519
143933,60.33519
143967,60.33519
144000,60.33519
144033,60.81081
144067,61.71429000000001
144100,61.71429000000001
144133,61.71429000000001
144167,61.71429000000001
144200,61.71429000000001
144233,61.71429000000001
144267,61.71429000000001
144300,61.71429000000001
144333,61.71429000000001
144367,61.71429000000001
144400,61.71429000000001
144433,61.71429000000001
144467,61.71429000000001
144500,61.71429000000001
144533,61.71429000000001
144567,61.71429000000001
144600,61.71429000000001
144633,61.71429000000001
144667,61.71429000000001
144700,61.71429000000001
144733,61.71429000000001
144767,61.71429000000001
144800,61.71429000000001
144833,61.71429000000001
144867,61.71429000000001
144900,61.71429000000001
144933,61.71429000000001
144967,62.37624
145000,62.37624
145033,62.37624
145067,63.15789
145100,63.15789
145133,63.15789
145167,63.15789
145200,63.15789
145233,63.15789
145267,63.15789
145300,63.15789
145333,63.15789
145367,63.15789
145400,63.15789
145433,63.15789
145467,63.15789
145500,63.15789
145533,63.15789
145567,63.15789
145600,63.15789
145633,63.15789
145667,63.15789
145700,63.15789
145733,63.15789
145767,63.15789
145800,63.15789
145833,63.15789
145867,63.15789
145900,63.15789
145933,63.15789
145967,63.15789
146000,63.15789
146033,63.15789
146067,63.15789
146100,63.905330000000006
146133,63.905330000000006
146167,63.905330000000006
146200,63.905330000000006
146233,63.905330000000006
146267,63.905330000000006
146300,63.905330000000006
146333,63.905330000000006
146367,63.905330000000006
146400,63.905330000000006
146433,63.905330000000006
146467,63.905330000000006
146500,66.66666
146533,66.66666
146567,66.66666
146600,66.66666
146633,66.66666
146667,66.66666
146700,66.66666
146733,66.66666
146767,66.66666
146800,66.66666
146833,66.66666
146867,66.66666
146900,66.66666
146933,66.66666
146967,66.66666
147000,66.66666
147033,66.66666
147067,66.66666
147100,66.66666
147133,66.66666
147167,66.66666
147200,66.66666
147233,66.66666
147267,66.66666
147300,66.66666
147333,66.66666
147367,66.66666
147400,66.66666
147433,66.31579
147467,66.31579
147500,66.31579
147533,66.31579
147567,66.31579
147600,66.31579
147633,66.31579
147667,66.31579
147700,66.31579
147733,66.31579
147767,66.31579
147800,66.31579
147833,66.31579
147867,66.31579
147900,66.31579
147933,67.5
147967,67.5
148000,67.5
148033,67.5
148067,67.5
148100,67.5
148133,67.5
148167,67.5
148200,67.5
148233,67.5
148267,67.5
148300,67.5
148333,67.5
148367,67.02128
148400,67.02128
148433,67.02128
148467,67.02128
148500,67.02128
148533,67.02128
148567,67.02128
148600,67.02128
148633,67.02128
148667,67.02128
148700,67.02128
148733,67.02128
148767,67.02128
148800,67.02128
148833,67.02128
148867,67.02128
148900,67.02128
148933,69.23076999999999
148967,69.23076999999999
149000,69.23076999999999
149033,69.23076999999999
149067,69.23076999999999
149100,69.23076999999999
149133,69.23076999999999
149167,69.23076999999999
149200,69.23076999999999
149233,69.23076999999999
149267,69.23076999999999
149300,69.23076999999999
149333,69.23076999999999
149367,69.23076999999999
149400,67.37968000000001
149433,67.37968000000001
149467,67.37968000000001
149500,67.37968000000001
149533,67.37968000000001
149567,67.02128
149600,67.02128
149633,67.02128
149667,67.02128
149700,67.02128
149733,67.02128
149767,67.02128
149800,67.02128
149833,67.02128
149867,67.02128
149900,67.02128
149933,67.02128
149967,67.08074
150000,67.08074
150033,67.08074
150067,67.08074
150100,67.08074
150133,67.08074
150167,67.08074
150200,67.08074
150233,67.08074
150267,67.08074
150300,67.08074
150333,67.08074
150367,67.08074
150400,67.08074
150433,67.08074
150467,67.08074
150500,65.28497
150533,65.28497
150567,65.625
150600,65.625
150633,65.625
150667,65.625
150700,65.625
150733,65.625
150767,65.625
150800,65.625
150833,65.625
150867,65.85365999999999
150900,65.85365999999999
150933,65.85365999999999
150967,67.66917
151000,67.66917
151033,67.66917
151067,59.01639
151100,59.01639
151133,59.01639
151167,59.01639
151200,59.01639
151233,59.01639
151267,58.69565
151300,58.69565
151333,58.69565
151367,58.69565
151400,58.69565
151433,58.69565
151467,58.69565
151500,58.69565
151533,58.69565
151567,58.69565
151600,58.69565
151633,58.69565
151667,58.69565
151700,58.69565
151733,58.69565
151767,58.69565
151800,57.32484
151833,57.32484
151867,57.32484
151900,57.32484
151933,57.32484
151967,57.32484
152000,57.32484
152033,57.32484
152067,57.32484
152100,57.32484
152133,57.32484
152167,57.14286
152200,57.14286
152233,57.14286
152267,57.14286
152300,57.14286
152333,57.14286
152367,57.14286
152400,57.14286
152433,57.14286
152467,57.14286
152500,57.14286
152533,57.14286
152567,57.14286
152600,57.14286
152633,57.14286
152667,57.14286
152700,52.94118
152733,52.94118
152767,52.94118
152800,52.94118
152833,52.94118
152867,52.94118
152900,52.94118
152933,52.94118
152967,52.94118
153000,52.94118
153033,52.94118
153067,52.94118
153100,52.94118
153133,54.27136
153167,54.27136
153200,54.27136
153233,54.27136
153267,54.27136
153300,54.27136
153333,52.32558
153367,52.32558
153400,52.32558
153433,52.32558
153467,52.32558
153500,52.32558
153533,52.32558
153567,52.32558
153600,52.32558
153633,52.32558
153667,52.32558
153700,52.32558
153733,52.32558
153767,52.32558
153800,52.32558
153833,52.32558
153867,52.32558
153900,52.32558
153933,52.32558
153967,52.32558
154000,52.32558
154033,52.32558
154067,52.32558
154100,52.32558
154133,53.46535
154167,53.46535
154200,53.46535
154233,52.02312
154267,52.02312
154300,52.02312
154333,52.02312
154367,52.02312
154400,52.02312
154433,52.02312
154467,52.02312
154500,52.02312
154533,52.02312
154567,52.02312
154600,52.02312
154633,52.02312
154667,52.02312
154700,52.02312
154733,52.02312
154767,52.02312
154800,52.02312
154833,52.02312
154867,52.02312
154900,52.02312
154933,52.02312
154967,52.02312
155000,52.02312
155033,52.02312
155067,52.02312
155100,52.02312
155133,53.20197
155167,53.20197
155200,52.32558
155233,52.32558
155267,52.32558
155300,52.32558
155333,52.32558
155367,52.63158000000001
155400,52.63158000000001
155433,52.63158000000001
155467,52.63158000000001
155500,52.63158000000001
155533,52.63158000000001
155567,52.63158000000001
155600,52.63158000000001
155633,52.32558
155667,62.7907
155700,62.7907
155733,62.7907
155767,62.7907
155800,62.7907
155833,62.7907
155867,62.7907
155900,62.7907
155933,62.7907
155967,63.95939
156000,63.95939
156033,63.95939
156067,63.95939
156100,62.7907
156133,63.95939
156167,63.95939
156200,63.95939
156233,65.06024000000001
156267,65.06024000000001
156300,65.06024000000001
156333,65.06024000000001
156367,65.06024000000001
156400,65.06024000000001
156433,65.06024000000001
156467,65.06024000000001
156500,65.06024000000001
156533,65.06024000000001
156567,65.06024000000001
156600,65.06024000000001
156633,65.06024000000001
156667,65.06024000000001
156700,65.06024000000001
156733,65.45454000000001
156767,65.45454000000001
156800,65.45454000000001
156833,65.45454000000001
156867,65.45454000000001
156900,65.45454000000001
156933,65.45454000000001
156967,65.45454000000001
157000,65.45454000000001
157033,65.45454000000001
157067,68.10811
157100,68.10811
157133,68.10811
157167,68.10811
157200,68.10811
157233,68.10811
157267,65.85365999999999
157300,65.85365999999999
157333,65.85365999999999
157367,65.85365999999999
157400,65.85365999999999
157433,65.85365999999999
157467,65.85365999999999
157500,65.85365999999999
157533,65.85365999999999
157567,65.28497
157600,65.625
157633,65.625
157667,65.625
157700,65.625
157733,65.625
157767,65.625
157800,65.625
157833,65.625
157867,65.625
157900,65.625
157933,65.625
157967,67.5
158000,67.5
158033,67.5
158067,67.5
158100,67.5
158133,67.5
158167,67.5
158200,67.5
158233,67.5
158267,67.5
158300,67.5
158333,67.5
158367,67.5
158400,67.5
158433,67.5
158467,67.5
158500,57.14286
158533,57.14286
158567,57.14286
158600,57.14286
158633,57.14286
158667,57.14286
158700,57.14286
158733,57.14286
158767,57.14286
158800,57.14286
158833,57.14286
158867,57.14286
158900,57.14286
158933,66.66666
158967,66.66666
159000,66.66666
159033,67.5
159067,67.5
159100,67.5
159133,67.5
159167,67.5
159200,67.5
159233,67.5
159267,67.5
159300,67.5
159333,67.5
159367,67.5
159400,67.37968000000001
159433,67.02128
159467,67.02128
159500,67.02128
159533,67.02128
159567,67.02128
159600,67.02128
159633,67.37968000000001
159667,67.37968000000001
159700,67.37968000000001
159733,67.37968000000001
159767,67.37968000000001
159800,67.37968000000001
159833,67.37968000000001
159867,67.37968000000001
159900,67.37968000000001
159933,67.37968000000001
159967,67.37968000000001
160000,68.78981
160033,68.78981
160067,68.78981
160100,68.35443000000001
160133,68.35443000000001
160167,68.35443000000001
160200,68.35443000000001
160233,68.35443000000001
160267,68.35443000000001
160300,68.35443000000001
160333,68.35443000000001
160367,67.74194
160400,67.74194
160433,67.74194
160467,67.74194
160500,67.74194
160533,67.74194
160567,67.74194
160600,67.74194
160633,67.74194
160667,67.74194
160700,67.74194
160733,67.74194
160767,67.74194
160800,67.74194
160833,67.74194
160867,67.74194
160900,67.74194
160933,67.74194
160967,68.78981
161000,68.78981
161033,68.78981
161067,68.78981
161100,68.78981
161133,68.78981
161167,68.78981
161200,68.78981
161233,68.78981
161267,68.10811
161300,68.10811
161333,68.10811
161367,68.10811
161400,68.10811
161433,68.10811
161467,68.10811
161500,68.10811
161533,68.10811
161567,68.10811
161600,68.10811
161633,68.10811
161667,68.10811
161700,68.10811
161733,68.10811
161767,68.10811
161800,68.10811
161833,68.10811
161867,68.10811
161900,68.10811
161933,67.92453
161967,67.92453
162000,67.92453
162033,67.92453
162067,67.92453
162100,67.92453
162133,67.92453
162167,67.92453
162200,67.37968000000001
162233,67.37968000000001
162267,67.37968000000001
162300,67.37968000000001
162333,67.37968000000001
162367,67.37968000000001
162400,67.37968000000001
162433,67.37968000000001
162467,67.37968000000001
162500,67.37968000000001
162533,67.37968000000001
162567,67.37968000000001
162600,67.37968000000001
162633,67.37968000000001
162667,67.37968000000001
162700,67.37968000000001
162733,67.37968000000001
162767,67.37968000000001
162800,67.5
162833,67.5
162867,67.5
162900,67.92453
162933,67.92453
162967,67.92453
163000,67.92453
163033,67.92453
163067,67.92453
163100,67.92453
163133,67.37968000000001
163167,67.37968000000001
163200,67.37968000000001
163233,67.37968000000001
163267,67.37968000000001
163300,67.37968000000001
163333,67.37968000000001
163367,67.37968000000001
163400,67.37968000000001
163433,67.37968000000001
163467,67.37968000000001
163500,67.37968000000001
163533,67.37968000000001
163567,67.37968000000001
163600,67.37968000000001
163633,67.37968000000001
163667,67.37968000000001
163700,67.37968000000001
163733,65.06024000000001
163767,68.10811
163800,68.10811
163833,68.47825999999999
163867,68.47825999999999
163900,68.47825999999999
163933,68.47825999999999
163967,68.47825999999999
164000,68.47825999999999
164033,68.47825999999999
164067,68.47825999999999
164100,68.47825999999999
164133,68.47825999999999
164167,68.47825999999999
164200,68.85246
164233,68.85246
164267,68.85246
164300,68.85246
164333,72.0
164367,72.0
164400,72.0
164433,72.0
164467,72.0
164500,72.36180999999998
164533,71.18644
164567,71.18644
164600,71.18644
164633,71.18644
164667,71.18644
164700,71.18644
164733,71.18644
164767,71.18644
164800,75.39267
164833,75.39267
164867,75.39267
164900,75.39267
164933,75.39267
164967,75.0
165000,75.0
165033,75.0
165067,75.0
165100,75.0
165133,84.375
165167,84.375
165200,84.375
165233,87.80488000000004
165267,87.80488000000004
165300,90.50279
165333,90.50279
165367,90.50279
165400,90.50279
165433,90.50279
165467,90.50279
165500,90.50279
165533,90.50279
165567,90.50279
165600,90.50279
165633,90.50279
165667,90.50279
165700,90.50279
165733,90.50279
165767,93.26425
165800,93.26425
165833,93.26425
165867,93.26425
165900,92.78351
165933,92.78351
165967,92.78351
166000,92.78351
166033,92.78351
166067,92.78351
166100,92.78351
166133,98.18182
166167,98.18182
166200,98.18182
166233,98.18182
166267,98.18182
166300,99.44752
166333,109.3923
166367,109.3923
166400,108.7912
166433,108.7912
166467,108.7912
166500,108.7912
166533,108.7912
166567,108.7912
166600,109.3923
166633,109.3923
166667,109.3923
166700,109.3923
166733,109.3923
166767,109.3923
166800,110.2041
166833,110.2041
166867,110.2041
166900,110.2041
166933,110.2041
166967,110.2041
167000,110.2041
167033,110.2041
167067,110.2041
167100,117.8571
167133,117.8571
167167,117.8571
167200,117.8571
167233,117.8571
167267,117.8571
167300,118.0328
167333,118.0328
167367,118.6813
167400,108.7912
167433,108.7912
167467,108.7912
167500,108.7912
167533,109.3923
167567,109.3923
167600,109.3923
167633,109.3923
167667,109.3923
167700,109.3923
167733,109.3923
167767,109.3923
167800,109.3923
167833,109.3923
167867,109.3923
167900,109.3923
167933,109.3923
167967,109.3923
168000,109.3923
168033,108.4337
168067,108.4337
168100,108.4337
168133,108.4337
168167,102.0619
168200,102.0619
168233,101.1236
168267,101.1236
168300,101.1236
168333,101.1236
168367,101.1236
168400,101.1236
168433,101.1236
168467,101.1236
168500,100.5587
168533,100.5587
168567,100.5587
168600,100.5587
168633,100.5587
168667,100.5587
168700,100.5587
168733,100.5587
168767,100.5587
168800,100.5587
168833,100.5587
168867,100.5587
168900,100.5587
168933,100.5587
168967,100.5587
169000,100.5587
169033,100.5587
169067,98.78049
169100,98.78049
169133,98.78049
169167,93.26425
169200,91.01124
169233,91.01124
169267,91.01124
169300,91.01124
169333,91.01124
169367,91.01124
169400,91.01124
169433,91.01124
169467,91.01124
169500,91.01124
169533,91.01124
169567,80.89888
169600,80.89888
169633,80.89888
169667,80.89888
169700,80.89888
169733,80.89888
169767,80.89888
169800,80.89888
169833,80.89888
169867,80.89888
169900,80.89888
169933,80.89888
169967,80.89888
170000,80.89888
170033,80.89888
170067,77.77778
170100,75.78947
170133,75.78947
170167,75.78947
170200,75.78947
170233,75.78947
170267,75.78947
170300,75.78947
170333,75.78947
170367,76.19048000000002
170400,76.19048000000002
170433,76.19048000000002
170467,66.66666
170500,66.66666
170533,66.66666
170567,66.66666
170600,62.7907
170633,62.7907
170667,62.7907
170700,62.7907
170733,62.7907
170767,62.7907
170800,62.7907
170833,64.61539
170867,64.61539
170900,64.61539
170933,64.61539
170967,64.61539
171000,64.61539
171033,64.61539
171067,64.61539
171100,64.61539
171133,64.61539
171167,65.06024000000001
171200,65.06024000000001
171233,65.06024000000001
171267,65.06024000000001
171300,65.06024000000001
171333,65.06024000000001
171367,65.06024000000001
171400,65.06024000000001
171433,65.06024000000001
171467,65.06024000000001
171500,65.06024000000001
171533,65.06024000000001
171567,65.06024000000001
171600,65.06024000000001
171633,66.31579
171667,65.96859
171700,65.96859
171733,65.96859
171767,65.96859
171800,65.96859
171833,65.96859
171867,65.96859
171900,65.96859
171933,65.96859
171967,65.96859
172000,65.96859
172033,66.31579
172067,66.31579
172100,66.31579
172133,67.08074
172167,67.08074
172200,67.08074
172233,67.08074
172267,67.08074
172300,67.08074
172333,67.08074
172367,67.08074
172400,67.08074
172433,67.08074
172467,67.08074
172500,67.08074
172533,67.02128
172567,67.02128
172600,67.02128
172633,67.02128
172667,67.02128
172700,67.02128
172733,67.02128
172767,67.02128
172800,67.02128
172833,67.02128
172867,67.02128
172900,67.02128
172933,67.02128
172967,67.02128
173000,67.02128
173033,67.02128
173067,67.02128
173100,67.92453
173133,67.92453
173167,67.92453
173200,67.92453
173233,67.92453
173267,67.92453
173300,67.92453
173333,67.92453
173367,67.92453
173400,67.92453
173433,67.92453
173467,67.92453
173500,67.37968000000001
173533,67.37968000000001
173567,67.37968000000001
173600,67.02128
173633,67.02128
173667,67.02128
173700,67.02128
173733,67.02128
173767,67.02128
173800,67.02128
173833,67.02128
173867,67.02128
173900,67.02128
173933,67.02128
173967,67.02128
174000,67.02128
174033,67.02128
174067,68.35443000000001
174100,68.35443000000001
174133,68.35443000000001
174167,68.35443000000001
174200,68.35443000000001
174233,68.35443000000001
174267,68.35443000000001
174300,68.35443000000001
174333,68.78981
174367,68.78981
174400,68.78981
174433,68.78981
174467,68.78981
174500,68.78981
174533,66.66666
174567,66.66666
174600,66.66666
174633,66.66666
174667,66.66666
174700,66.66666
174733,66.66666
174767,66.66666
174800,66.66666
174833,66.66666
174867,66.66666
174900,66.66666
174933,66.66666
174967,66.66666
175000,66.66666
175033,66.66666
175067,66.66666
175100,66.66666
175133,66.66666
175167,66.66666
175200,66.66666
175233,66.66666
175267,66.66666
175300,66.66666
175333,66.66666
175367,66.66666
175400,66.66666
175433,66.66666
175467,66.66666
175500,66.66666
175533,66.66666
175567,66.66666
175600,64.94846
175633,64.94846
175667,64.94846
175700,64.94846
175733,64.94846
175767,64.94846
175800,64.94846
175833,64.94846
175867,64.94846
175900,64.94846
175933,64.94846
175967,64.67066
176000,64.67066
176033,64.67066
176067,64.67066
176100,64.67066
176133,64.67066
176167,64.67066
176200,64.67066
176233,64.67066
176267,64.67066
176300,64.67066
176333,64.67066
176367,64.67066
176400,64.67066
176433,64.67066
176467,64.67066
176500,64.67066
176533,64.67066
176567,64.28571
176600,64.28571
176633,64.28571
176667,64.28571
176700,64.28571
176733,64.28571
176767,64.28571
176800,64.28571
176833,64.28571
176867,63.15789
176900,63.15789
176933,63.15789
176967,63.15789
177000,63.15789
177033,63.15789
177067,63.15789
177100,63.15789
177133,63.15789
177167,63.15789
177200,63.15789
177233,63.15789
177267,63.15789
177300,63.15789
177333,63.15789
177367,63.15789
177400,63.15789
177433,63.15789
177467,63.15789
177500,63.15789
177533,63.0
177567,63.0
177600,63.0
177633,63.0
177667,62.68657
177700,61.36364
177733,61.36364
177767,61.36364
177800,61.36364
177833,61.36364
177867,61.36364
177900,61.36364
177933,61.36364
177967,61.36364
178000,61.36364
178033,61.36364
178067,61.36364
178100,61.36364
178133,61.36364
178167,61.36364
178200,61.36364
178233,61.36364
178267,61.36364
178300,61.36364
178333,61.36364
178367,61.36364
178400,61.36364
178433,61.36364
178467,61.01695
178500,61.01695
178533,59.21053000000001
178567,59.21053000000001
178600,59.21053000000001
178633,59.21053000000001
178667,59.21053000000001
178700,58.37838000000001
178733,58.37838000000001
178767,58.37838000000001
178800,58.37838000000001
178833,58.37838000000001
178867,58.37838000000001
178900,58.37838000000001
178933,58.06452
178967,58.06452
179000,58.06452
179033,58.06452
179067,58.06452
179100,58.06452
179133,58.06452
179167,58.06452
179200,58.06452
179233,58.06452
179267,58.06452
179300,58.06452
179333,58.06452
179367,56.96202
179400,56.96202
179433,56.96202
179467,56.96202
179500,56.96202
179533,56.96202
179567,56.96202
179600,56.96202
179633,56.96202
179667,56.96202
179700,56.96202
179733,56.96202
179767,56.96202
179800,56.96202
179833,56.5445
179867,56.5445
179900,56.5445
179933,56.5445
179967,56.5445
180000,56.5445
180033,56.5445
180067,56.5445
180100,56.5445
180133,56.5445
180167,56.5445
180200,56.5445
180233,56.5445
180267,56.5445
180300,56.96202
180333,56.96202
180367,56.96202
180400,56.96202
180433,56.96202
180467,56.96202
180500,56.96202
180533,56.96202
180567,56.96202
180600,56.96202
180633,56.96202
180667,56.96202
180700,56.96202
180733,56.96202
180767,56.96202
180800,56.96202
180833,57.44681
180867,57.44681
180900,57.44681
180933,57.44681
180967,57.44681
181000,57.44681
181033,57.44681
181067,57.44681
181100,57.44681
181133,57.44681
181167,57.44681
181200,57.44681
181233,57.44681
181267,57.44681
181300,57.44681
181333,57.44681
181367,57.44681
181400,57.32484
181433,57.32484
181467,57.32484
181500,57.32484
181533,57.32484
181567,57.32484
181600,57.32484
181633,57.32484
181667,57.32484
181700,57.32484
181733,57.32484
181767,57.32484
181800,57.32484
181833,57.32484
181867,57.32484
181900,57.14286
181933,57.14286
181967,57.14286
182000,57.14286
182033,57.14286
182067,57.14286
182100,57.14286
182133,57.14286
182167,57.14286
182200,57.14286
182233,57.14286
182267,57.14286
182300,57.14286
182333,57.14286
182367,57.14286
182400,57.14286
182433,56.25
182467,56.25
182500,56.25
182533,56.25
182567,56.25
182600,56.25
182633,56.25
182667,56.25
182700,56.25
182733,56.60378000000001
182767,56.60378000000001
182800,56.60378000000001
182833,56.60378000000001
182867,56.60378000000001
182900,56.60378000000001
182933,56.84211
182967,56.84211
183000,56.84211
183033,56.84211
183067,56.84211
183100,56.84211
183133,56.84211
183167,56.84211
183200,56.84211
183233,56.84211
183267,56.84211
183300,56.84211
183333,56.84211
183367,56.84211
183400,56.84211
183433,56.96202
183467,57.32484
183500,57.32484
183533,57.32484
183567,57.32484
183600,57.32484
183633,57.32484
183667,57.32484
183700,57.32484
183733,57.32484
183767,57.32484
183800,57.32484
183833,57.32484
183867,57.32484
183900,57.32484
183933,57.75401
183967,57.75401
184000,57.75401
184033,57.75401
184067,57.75401
184100,57.75401
184133,57.75401
184167,57.75401
184200,57.75401
184233,57.75401
184267,57.75401
184300,57.75401
184333,57.75401
184367,57.75401
184400,58.06452
184433,58.06452
184467,58.06452
184500,58.06452
184533,58.06452
184567,58.06452
184600,58.06452
184633,58.06452
184667,58.06452
184700,58.06452
184733,58.06452
184767,58.06452
184800,58.06452
184833,58.06452
184867,58.06452
184900,58.06452
184933,58.37838000000001
184967,58.37838000000001
185000,58.37838000000001
185033,58.37838000000001
185067,58.37838000000001
185100,58.37838000000001
185133,58.37838000000001
185167,58.37838000000001
185200,58.06452
185233,58.06452
185267,58.06452
185300,58.06452
185333,58.06452
185367,58.06452
185400,58.06452
185433,58.06452
185467,58.06452
185500,58.06452
185533,58.06452
185567,58.06452
185600,58.06452
185633,58.06452
185667,58.06452
185700,58.44156
185733,58.44156
185767,58.44156
185800,58.44156
185833,58.44156
185867,58.44156
185900,58.44156
185933,58.69565
185967,58.69565
186000,58.69565
186033,58.69565
186067,58.69565
186100,58.69565
186133,58.69565
186167,58.69565
186200,58.69565
186233,58.69565
186267,58.69565
186300,58.69565
186333,58.69565
186367,58.69565
186400,58.69565
186433,58.69565
186467,58.69565
186500,58.69565
186533,58.69565
186567,58.69565
186600,58.69565
186633,58.44156
186667,58.44156
186700,58.44156
186733,58.44156
186767,58.44156
186800,58.44156
186833,58.44156
186867,58.44156
186900,58.44156
186933,58.44156
186967,58.44156
187000,58.06452
187033,57.75401
187067,57.75401
187100,57.75401
187133,57.75401
187167,57.75401
187200,57.75401
187233,57.75401
187267,57.75401
187300,57.75401
187333,57.75401
187367,57.75401
187400,57.75401
187433,57.75401
187466,57.75401
187500,57.75401
187533,57.75401
187566,57.75401
187600,57.75401
187633,57.75401
187666,57.75401
187700,57.75401
187733,57.75401
187766,57.75401
187800,57.75401
187833,57.75401
187866,57.75401
187900,57.75401
187933,57.75401
187966,57.75401
188000,57.75401
188033,57.75401
188066,57.75401
188100,57.75401
188133,57.75401
188166,57.75401
188200,57.75401
188233,57.75401
188266,57.75401
188300,57.75401
188333,57.75401
188366,57.75401
188400,57.75401
188433,57.75401
188466,57.75401
188500,57.75401
188533,57.75401
188566,57.75401
188600,57.75401
188633,57.75401
188666,57.75401
188700,57.75401
188733,57.75401
188766,57.75401
188800,57.75401
188833,57.75401
188866,57.75401
188900,57.75401
188933,57.75401
188966,57.75401
189000,57.75401
189033,57.75401
189066,57.75401
189100,57.75401
189133,57.75401
189166,57.75401
189200,57.75401
189233,57.75401
189266,57.75401
189300,57.75401
189333,57.75401
189366,57.75401
189400,57.75401
189433,57.75401
189466,57.75401
189500,57.75401
189533,57.75401
189566,57.75401
189600,57.75401
189633,57.75401
189666,57.75401
189700,57.75401
189733,57.75401
189766,57.75401
189800,57.75401
189833,57.75401
189866,57.75401
189900,57.75401
189933,57.75401
189966,57.75401
190000,57.75401
190033,57.75401
190066,57.75401
190100,57.75401
190133,57.75401
190166,57.75401
190200,57.75401
190233,57.75401
190266,57.75401
190300,57.75401
190333,57.75401
190366,57.75401
190400,57.75401
190433,57.75401
190466,57.75401
190500,57.75401
190533,57.75401
190566,57.75401
190600,57.75401
190633,57.75401
190666,57.75401
190700,57.75401
190733,57.75401
190766,57.75401
190800,57.75401
190833,57.75401
190866,57.75401
190900,57.75401
190933,57.75401
190966,57.75401
191000,57.75401
191033,57.75401
191066,57.75401
191100,57.75401
191133,57.75401
191166,57.75401
191200,57.75401
191233,57.75401
191266,57.75401
191300,57.75401
191333,57.75401
191366,57.75401
191400,57.75401
191433,57.75401
191466,57.75401
191500,57.75401
191533,57.75401
191566,57.75401
191600,57.75401
191633,57.75401
191666,57.75401
191700,57.75401
191733,57.75401
191766,57.75401
191800,57.75401
191833,57.75401
191866,57.75401
191900,57.75401
191933,57.75401
191966,57.75401
192000,57.75401
192033,57.75401
192066,57.75401
192100,57.75401
192133,57.75401
192166,57.75401
192200,57.75401
192233,57.75401
192266,57.75401
192300,57.75401
192333,57.75401
192366,57.75401
192400,57.75401
192433,57.75401
192466,57.75401
192500,57.75401
192533,57.75401
192566,57.75401
192600,57.75401
192633,57.75401
192666,57.75401
192700,57.75401
192733,57.75401
192766,57.75401
192800,57.75401
192833,57.75401
192866,57.75401
192900,57.75401
192933,57.75401
192966,57.75401
193000,57.75401
193033,57.75401
193066,57.75401
193100,57.75401
193133,57.75401
193166,57.75401
193200,57.75401
193233,57.75401
193266,57.75401
193300,57.75401
193333,57.75401
193366,57.75401
193400,57.75401
193433,57.75401
193466,57.75401
193500,57.75401
193533,57.75401
193566,57.75401
193600,57.75401
193633,57.75401
193666,57.75401
193700,57.75401
193733,57.75401
193766,57.75401
193800,57.75401
193833,57.75401
193866,57.75401
193900,57.75401
193933,57.75401
193966,57.75401
194000,57.75401
194033,57.75401
194066,57.75401
194100,57.75401
194133,57.75401
194166,57.75401
194200,57.75401
194233,57.75401
194266,57.75401
