B,G,R,Time[ms]
121.41687596386869,92.26029962546819,66.31174267459794,0.0
121.17158505860444,92.22225873589659,66.28366743345383,33.333333333333336
121.25336193930815,92.18997168893215,66.14086968061576,66.66666666666667
121.43033122853664,91.9926221335992,66.30838595325136,100.0
121.03968043785312,91.84778866525423,65.93546963276836,133.33333333333334
121.12427580758428,91.96872805477527,66.06623068820224,166.66666666666666
120.81707714714257,91.84522748516399,66.01571636632393,200.0
120.98251458932148,91.59213047643934,66.26794268791917,233.33333333333331
121.31917544703363,91.80682464040571,66.47151663533424,266.6666666666667
120.73276352030778,91.64348795523108,65.95654264853758,300.0
124.68723903354444,93.91787473610134,67.68881069669247,333.3333333333333
124.92602107566783,94.00870620138443,67.70020695068864,366.6666666666666
125.44384032050364,94.29660895693232,68.12944150331474,400.0
125.06887012925071,94.17980636237895,67.78597319597462,433.33333333333337
125.4341235632184,94.42502394636016,67.96982758620689,466.66666666666674
125.37365860638144,94.34943005675585,67.93985787189392,500.0
124.97893511921724,94.16350812197209,67.78163294385865,533.3333333333334
125.48931475307606,94.37226872616506,68.03616914110282,566.6666666666666
125.27366704242918,94.40666298899096,67.83963734919531,600.0
125.452306004674,94.50147851385508,68.07275718986979,633.3333333333333
125.47028664091192,94.5306672389946,68.1030428769018,666.6666666666666
125.22442409500644,94.48864882911242,67.98049315591167,700.0
125.30929555968905,94.41970715886869,67.98752802022226,733.3333333333333
125.35053845969351,94.39685318878469,67.90336507327369,766.6666666666667
125.5845556306089,94.33081636591723,68.00195406735502,800.0
125.78323643410853,94.44886143410852,68.09920058139535,833.3333333333335
125.76729287090559,94.52434971098265,68.14896435452793,866.6666666666667
126.17802810077521,94.41688468992248,68.46787790697674,900.0
126.00116959064327,94.40090155945421,68.11764132553606,933.3333333333336
126.95179570209007,94.9751005789422,68.72735747227945,966.6666666666664
127.05022752428977,95.12254335260117,68.81173287418521,1000.0
127.3898659451482,95.05312999631045,69.14787848973066,1033.3333333333335
127.3567088918952,95.06823268970606,69.14315582339195,1066.6666666666667
126.88643463288649,95.04936662157176,68.61682449883163,1100.0
126.55118167849564,94.86724714031365,68.56466915441086,1133.3333333333333
126.34020494273659,94.92339963833635,68.56759493670886,1166.6666666666667
126.16522823168393,94.82753164556965,68.47358074415037,1200.0
126.0152220888355,94.72902761104444,68.24665066026411,1233.3333333333335
126.00374549819927,94.71135654261705,68.23399759903961,1266.6666666666665
126.76923826222479,95.15008279758423,68.58781414377556,1300.0
126.85365617433412,95.38663438256658,68.78029055690072,1333.3333333333333
127.26098285602959,95.23322131307228,69.06263393726864,1366.6666666666667
126.75539620984854,95.08599790249019,68.56169361722885,1400.0
126.87084082187788,94.84320202069269,68.75365521931316,1433.333333333333
126.6210469981512,94.57545976452272,68.5485063734553,1466.6666666666665
125.67318007662836,94.36226053639848,67.99956896551724,1500.0
125.46247777119144,93.99577949021929,68.08450503852993,1533.3333333333335
124.62338329364523,93.79448568893869,67.68412942989214,1566.666666666667
124.89656860459696,94.00962748846099,67.99319315585808,1600.0
124.5471166720532,93.87296274066208,67.93822429475046,1633.333333333333
124.39968273674049,93.88465871209507,67.91123525760398,1666.666666666667
124.96096311002356,93.95655385751878,68.3637979592779,1700.0
124.82249770431588,94.1519054178145,68.26827364554637,1733.3333333333335
125.46045119705342,94.36696593001841,68.85681399631676,1766.6666666666665
124.68730486685033,94.025,68.20658861340681,1800.0
125.06629935720844,94.06395775941229,68.49065656565656,1833.333333333333
125.04079430670342,94.06655188246096,68.52196969696969,1866.666666666667
124.74064929126658,94.1360310928212,68.20429812528577,1900.0
124.85256058527665,94.14492455418379,68.25306355738455,1933.333333333333
124.77899877899875,94.45140867363092,68.42045403156514,1966.6666666666665
124.80877212763559,94.24352238132822,68.63655429022438,2000.0
124.41307926485511,94.3754425527117,68.12668846544143,2033.333333333333
124.41170368699969,94.37839666253242,68.1178486864359,2066.666666666667
124.60852730730913,94.3157096277511,68.3111357666878,2100.0
125.18788754720501,94.3990395822649,68.20506783533033,2133.333333333333
125.39230517812952,94.09051220992669,68.31769155343885,2166.6666666666665
124.95237093153759,93.85486812570144,67.83716797605686,2200.0
125.36291263949198,94.10517346033524,68.2478638464771,2233.333333333333
125.360764812999,94.10573376289862,68.23845543260026,2266.6666666666665
125.4793002640513,94.13534986797436,68.01027913994719,2300.0
126.26863162878789,94.40134943181818,68.58870738636364,2333.333333333333
126.02299940723177,94.39981031416715,68.23886188500296,2366.6666666666665
126.73307291666669,94.59396306818182,68.85409564393939,2400.0
126.85919595110771,94.9177807486631,68.72607906799085,2433.333333333333
126.8352988922842,94.92066940412529,68.71889323911383,2466.666666666667
127.12559939229929,94.89980059820542,69.14380667521246,2500.0
126.51965581637235,94.83790747701107,68.61903411105595,2533.333333333333
126.54728979032221,94.82693898777865,68.63740160272322,2566.666666666667
126.45122467208876,94.91439048469748,68.68233745475061,2600.0
126.532038606403,94.73827683615819,68.84818738229754,2633.333333333333
126.57165725047079,94.70991054613935,68.85673258003766,2666.6666666666665
125.88437689402771,94.60380437316424,68.47675882325518,2700.0
126.10762882774289,94.67393773615521,68.84591668791579,2733.333333333333
126.17228464419478,94.87434456928841,68.6369382022472,2766.666666666666
126.24546234265976,94.72778692134727,69.03305593546443,2800.0
125.84021457554847,94.78629559157288,68.85030146030581,2833.333333333333
125.8141032988698,94.81300291144173,68.81119185713302,2866.666666666666
126.14365180274271,94.90321042593771,69.38845245663427,2900.0
125.40877478209819,94.71948245495192,68.86835568802782,2933.333333333333
126.2551867219917,94.72978888331586,69.52238839998175,2966.666666666667
126.15743252563335,94.98749367787023,69.12685640719114,3000.0
126.31849403380451,94.70082284267531,68.82317087465128,3033.333333333333
126.30466277516001,94.69092997632276,68.82434301521438,3066.666666666667
126.309375,94.73589015151516,68.66429924242425,3100.0
126.71826741996232,94.89067796610169,69.17645951035782,3133.333333333333
126.58017161903412,94.97489539748956,68.93194336099096,3166.666666666666
127.18770411690386,95.31442942620802,69.14157667644044,3200.0
126.68425407181525,95.10200222206464,68.91877644611493,3233.333333333333
126.66867598042693,95.12325366995249,68.88133229321798,3266.666666666666
126.91493914035757,95.15153100038036,69.0310241536706,3300.0
126.80750760745528,95.13538893115252,68.92946462533283,3333.333333333333
126.76720809792843,95.09124293785312,69.18608757062147,3366.666666666666
126.45503766478343,95.1123822975518,68.90428436911489,3400.0
126.7904356060606,95.17395833333332,69.16226325757576,3433.333333333333
126.64936440677964,95.147104519774,69.18997175141243,3466.666666666667
126.4231638418079,95.09411487758943,68.88547551789078,3500.0
126.98544500673201,95.70924834022007,69.66862435581967,3533.333333333333
127.07245261906428,95.69981583793738,69.55281255099422,3566.666666666667
127.1525604717025,95.39300803194206,69.80644412461118,3600.0
126.30382136279923,95.04544198895029,69.21979742173112,3633.333333333334
126.28671731123389,95.05066758747698,69.19293278084714,3666.666666666666
126.30945821854912,94.69864554637282,69.2757116620753,3700.0
126.34620370370372,94.97361111111113,69.05613425925925,3733.333333333334
127.34714332660437,95.22348716022722,69.65804422327591,3766.666666666666
126.9975214805023,95.16067887829287,69.0995656689642,3800.0
127.60873918329399,95.14250637679086,69.4540513480655,3833.333333333334
127.62752389806671,95.13845383680186,69.46785382249875,3866.666666666666
126.70678388416151,94.88049457007193,68.89441022989045,3900.0
127.06151129943504,94.76683145009414,69.3132768361582,3933.333333333333
126.44925803502356,94.74571582624188,68.64413812504395,3966.666666666667
126.73619804486954,94.5926342687015,69.09944440537309,4000.0
126.60986420218785,94.77477838551485,68.75094304036213,4033.333333333333
126.16580153385708,94.50965675271229,68.53004582865694,4066.666666666666
126.8289256198347,94.67754427390793,68.96486422668241,4100.0
126.5484486986043,94.85936910599771,68.66217936627686,4133.333333333334
127.404692848992,95.1594475085584,69.16389311525295,4166.666666666667
127.47111047808954,95.45451740018042,69.18378198737122,4200.0
127.66742265087856,95.18007543926664,69.38887032085562,4233.333333333333
127.66852081741787,95.16723166539343,69.40116501145913,4266.666666666667
127.04436097375427,95.04108025865351,68.94082826169647,4300.0
127.36556200076076,95.0878423354888,69.1346995055154,4333.333333333333
127.68597839135654,95.23961584633854,69.20881152460984,4366.666666666666
127.9133164629488,95.33432009167305,69.45638368983957,4400.0
127.9401131568853,95.44514767932488,69.22547468354429,4433.333333333334
127.97962217107786,95.44509973149214,69.22768028385117,4466.666666666667
128.14455648525592,95.46563684474005,69.54675915993231,4500.0
128.61764635172494,95.99752374083424,69.71919701887246,4533.333333333333
129.66729613733906,96.41481299816064,70.15183323114654,4566.666666666666
129.65783631789256,96.40323615016527,70.05354940555472,4600.0
129.86698412698414,96.4999023199023,70.51311355311357,4633.333333333334
129.74380827505829,96.48419289044287,70.52515540015541,4666.666666666667
129.53162797502927,96.56147580959814,70.13826570425283,4700.0
129.9873645320197,96.80524630541872,70.32926108374384,4733.333333333333
129.8770197044335,96.85859605911331,70.24822660098522,4766.666666666667
130.08473329245862,96.895524218271,70.67320662170448,4800.0
130.101921182266,97.2462315270936,70.59487684729066,4833.333333333333
129.9538107366771,97.2096884796238,70.61620787617555,4866.666666666666
130.14527821316614,97.32846786833856,70.76253918495297,4900.0
130.10352216748768,97.34118226600985,70.52913793103448,4933.333333333334
130.31487558777428,97.34859913793105,70.88315536833855,4966.666666666667
129.96603154388714,97.31614909874607,70.5433728448276,5000.0
130.04191865001948,97.16384607881388,70.77860417479516,5033.333333333333
130.07954545454547,97.11556281701132,70.79223566133437,5066.666666666666
129.59688353491998,97.01894752243463,70.36078326180258,5100.0
129.9042172805643,97.1102321708464,70.41195630877742,5133.333333333334
129.81002644984326,97.11086892633229,70.39495983542321,5166.666666666667
130.17062597962382,97.1184610109718,70.79136461598745,5200.0
129.96135467980295,97.17386699507392,70.48256157635468,5233.333333333333
129.94517241379307,97.16418719211822,70.45485221674878,5266.666666666667
130.36771799628946,97.18980828695116,70.78481137909709,5300.0
129.9630066902794,97.22796143250687,70.54001869342778,5333.333333333333
130.3831292517007,97.25184910327768,70.9569820655535,5366.666666666666
130.132195423624,97.26585034013605,70.6392578849722,5400.0
130.1304390847248,97.29669758812616,70.58174397031542,5433.333333333334
130.10758194186766,97.30189239332095,70.55581941867656,5466.666666666667
130.0569696969697,97.32450216450216,70.50876932591218,5500.0
130.39406211180125,97.6216894409938,70.76978881987577,5533.333333333332
130.3239254658385,97.62735403726707,70.70099378881987,5566.666666666666
130.42668322981368,97.69356521739132,70.7953291925466,5600.0
130.22853260869564,97.7040266798419,70.76099308300395,5633.333333333334
130.21763833992094,97.69016798418971,70.74318181818181,5666.666666666668
130.1603207398662,97.73509445100352,70.82573297914206,5700.0
130.11401360544218,97.70283240568956,70.69330859616575,5733.333333333332
130.10030499803227,97.681080283353,70.8918732782369,5766.666666666668
129.44335251658214,97.42164943425672,70.47437085446742,5800.0
129.54789309403043,97.30372122512681,70.54230881779165,5833.333333333332
129.53477370269218,97.2859198205228,70.53621244635194,5866.666666666666
129.18230589153336,97.1484832227858,70.20152165431135,5900.0
128.91438504997828,96.93539040996667,70.2239847409339,5933.333333333334
128.77362499396398,96.85465256651699,70.1456854507702,5966.666666666668
128.97814685314685,96.85542929292929,70.19769813519814,6000.0
128.39504352030949,96.51602998065763,69.75053191489361,6033.333333333332
128.3574226305609,96.4838733075435,69.75227272727273,6066.666666666666
128.46198478428352,96.37280912942991,69.98760111710324,6100.0
128.30029013539652,96.43205996131529,69.69917794970986,6133.333333333334
128.3316400231125,96.51095435285058,69.87596302003082,6166.666666666668
128.71870143745144,96.80106351981352,70.0840374902875,6200.0
129.5167515673981,97.443549177116,70.65002938871473,6233.333333333332
129.68241379310345,97.4372906403941,70.64204433497538,6266.666666666668
129.968354743083,97.72611166007906,70.83389328063241,6300.0
130.74592179892585,97.7278020378457,71.2862771670933,6333.333333333332
130.18774014155713,97.57363498483316,70.49959555106167,6366.666666666666
129.21518425336686,96.93093581964384,70.13292388140694,6400.0
128.95650358581395,96.87781216229492,69.92214362904018,6433.333333333334
128.8114697970164,96.84257764734656,69.8657617999511,6466.666666666668
129.7045633166323,97.24290205324688,70.62651046271736,6500.0
129.3194114040466,97.34597179644388,70.38060085836909,6533.333333333332
129.19643633202958,97.16036505867014,70.75892124197209,6566.666666666666
129.0492402104033,97.28170660432495,70.42645626339372,6600.0
129.30324970941496,97.24803855094923,70.89408175125921,6633.333333333334
129.2917473847346,97.25077489345215,70.88277314994187,6666.666666666668
128.4267389167286,96.90080801783873,70.32800249358621,6700.0
127.87204347409748,96.30960930767021,69.79333046059561,6733.333333333332
128.6840128755365,96.79691767460008,70.11027116660163,6766.666666666668
128.93773186877138,96.66635144637621,70.49530806721467,6800.0
128.96473858759268,96.83512973078423,70.24885388216933,6833.333333333332
128.96005657432696,96.84785895435036,70.25082910651581,6866.666666666666
128.9464355089355,96.83124514374515,70.40100524475523,6900.0
128.79125763125762,96.68356532356532,70.10302808302808,6933.333333333334
129.13041357783848,96.98692937963324,70.45773995317987,6966.666666666668
129.11649294911098,97.03703249540159,70.39428571428572,7000.0
129.16897608828938,97.09863887185776,70.39497240956469,7033.333333333332
129.18908645003066,97.08024524831393,70.38776210913551,7066.666666666666
129.09059472716126,97.06680564071121,70.2274678111588,7100.0
128.7932844932845,96.85567765567764,70.06847374847375,7133.333333333334
128.7244932844933,96.8435409035409,70.00761904761903,7166.666666666668
128.93834622823985,96.80239361702128,70.51269342359768,7200.0
128.3990032742681,96.80320685670263,70.17507704160246,7233.333333333332
128.3728813559322,96.79591197996919,70.15425173343606,7266.666666666668
128.43474382157927,96.76094032549729,70.2321157323689,7300.0
128.17408077154914,96.74519590114528,69.89499698613622,7333.333333333332
128.27337334933972,96.7450900360144,70.09704681872749,7366.666666666666
128.15913200723327,96.79727546714888,69.91132007233273,7400.0
128.54969183359017,96.77378659476118,70.34466486902927,7433.333333333334
128.57333397534669,96.74831471494608,70.37066640986133,7466.666666666668
128.43226747720362,96.81296048632221,70.0396595744681,7500.0
128.56423100303948,96.82079027355623,70.26122796352585,7533.333333333332
128.04037717601548,96.4953578336557,69.89279497098646,7566.666666666666
128.03873751460108,96.33223676368924,70.2145700731841,7600.0
127.19627449589865,96.01160674183865,69.55542160130487,7633.333333333334
127.19121575301986,96.0064061650474,69.53182989386096,7666.666666666668
127.66878921247309,96.4794690514093,70.17791928083153,7700.0
127.6850440299214,96.3547249313512,69.91035413313134,7733.333333333332
128.47533578984905,96.52877689290385,70.5524307619161,7766.666666666668
128.14384880542022,96.58773326993938,70.16476881017472,7800.0
128.14793771544038,96.62410555093308,70.18885058837513,7833.333333333332
128.13643171282538,96.63171282538929,70.2162843218828,7866.666666666666
128.18179008677046,96.67790324497801,70.17881849518602,7900.0
127.822454800462,96.35674044739882,70.07670367489334,7933.333333333334
127.30114379084965,96.18284313725486,69.87640056022407,7966.666666666668
127.45905695611576,96.19808590102707,69.96174136321194,8000.0
127.22647290960585,96.14225358651748,69.85899995357259,8033.333333333332
127.18547750591951,96.13593945865641,69.81763313060031,8066.666666666666
127.27719549358206,96.26103518330409,69.96848739495799,8100.0
126.63897838165943,95.61189709109587,69.21237801746275,8133.333333333332
127.09073033707865,95.98525280898876,69.59756554307117,8166.666666666666
126.73368966406453,95.65138195372387,69.2434535949551,8200.0
126.88282672643228,95.72972405098751,69.49094177522528,8233.333333333332
126.82263905655121,95.7287120438295,69.56606927291298,8266.666666666668
126.4636270252603,95.65543726945884,69.0851659896344,8300.0
126.50389877200355,95.70247933884295,69.22248680954381,8333.333333333334
126.59785875281744,95.73098234410222,69.18172426746807,8366.666666666668
126.40965082893398,95.44257664165971,69.2531721774567,8400.0
126.32633512357306,95.49422240822115,69.12443328450861,8433.333333333334
126.29487805445116,95.4799237404385,69.06065890121131,8466.666666666666
126.00984069648977,95.10792349726776,68.84755024543854,8500.0
125.61368952075212,94.93015363448751,68.73620729190553,8533.333333333334
126.91286307053942,95.48294535480694,69.1788686499285,8566.666666666666
124.25392216444956,93.87388299907715,67.83611317442096,8600.0
124.3290022675737,93.27394557823128,67.74344671201814,8633.333333333332
124.31149659863951,93.28768707482992,67.77179138321996,8666.666666666666
122.32648578811369,92.77269595176573,67.17310508182601,8700.0
122.65248757313157,92.30875819293541,67.10557339550434,8733.333333333332
121.12866552181379,91.72766993456949,65.97061061235136,8766.666666666668
120.82198963773695,92.0061382883539,66.91649847062986,8800.0
119.32636902541141,91.2381751855076,65.96584172781161,8833.333333333334
119.63896460600512,91.4460350818785,66.11827129153748,8866.666666666668
119.55355655505579,90.9545227386307,65.93509495252374,8900.0
119.09575962969083,90.9779302364027,65.55779880972061,8933.333333333334
119.79878714117844,91.17504616417659,65.97337166358905,8966.666666666666
119.00184951660358,90.88469945355192,65.06979823455235,9000.0
119.82593151840831,90.47333126082516,64.6908780032864,9033.333333333334
119.82058000621751,90.48876404494379,64.67602256073188,9066.666666666666
118.34573514624228,89.78092073623924,63.655838761858966,9100.0
118.12626361019116,89.27084009784186,63.56425741931295,9133.333333333332
117.44318181818184,89.01549982584466,62.7892284918147,9166.666666666666
118.064,89.10325274725271,63.448263736263726,9200.0
117.27626373626372,88.86668131868132,62.58956043956045,9233.333333333332
117.26145054945054,88.88221978021977,62.55780219780221,9266.666666666668
118.23341856586993,89.25260700389104,63.3197554196776,9300.0
117.85371873262925,88.99001667593106,62.80482490272375,9333.333333333334
118.53633720930232,89.2488548273432,63.47656800563777,9366.666666666668
118.05854458041958,89.11107954545454,63.02104458041958,9400.0
118.14044943820221,89.27115820053831,63.66512154483701,9433.333333333334
118.14715683342592,89.26427991626439,63.67452044260264,9466.666666666666
117.49204119850187,88.94660793326523,63.015343037112686,9500.0
118.01461435520528,89.1966990250016,63.576799711111576,9533.333333333334
117.47776306233179,88.88089033195196,62.921455120263175,9566.666666666666
117.80589031384932,89.0277974694421,63.070095164443295,9600.0
117.76438744602692,88.99729329122896,62.9650276041331,9633.333333333332
117.77186311787071,88.98676720156384,62.95643487787587,9666.666666666666
117.97407144851879,89.09402590706966,63.1098580051986,9700.0
117.88295165394402,89.03493336783542,62.98650105662656,9733.333333333332
118.13028561626213,89.36649798438974,63.34548417531521,9766.666666666668
118.60034201355066,89.57501569365976,63.541983245665314,9800.0
119.99189822875314,89.93079833786011,63.71878264503099,9833.333333333334
120.02467674164869,89.96269470947374,63.771153980082175,9866.666666666668
118.31584476578917,90.7692291846908,65.05998434474519,9900.0
118.92233612923269,90.84866935901418,65.53053743398571,9933.333333333334
119.0283114256825,91.12116616110548,65.54415234243343,9966.666666666666
119.27106939752855,90.7732714756061,65.43772181126266,10000.0
118.9803082743943,90.56581464840812,64.92505965560977,10033.333333333334
118.93417276971176,90.59775579253927,64.95254614758662,10066.666666666666
118.11651349561184,90.15708312634544,64.88524590163935,10100.0
117.78380418154005,90.13223865374808,64.91045385007651,10133.333333333332
118.81438002888383,90.48687848153496,65.5833917887353,10166.666666666666
119.89109915980906,90.89492213654722,65.66582431585995,10200.0
120.99651941683815,91.2357821461407,66.26627555711221,10233.333333333332
120.93366425010342,91.26183789432434,66.31526353601986,10266.666666666668
121.00353456500996,91.57903981264636,66.32650273224043,10300.0
121.38416167924365,91.74225865209473,66.5225518258305,10333.333333333334
121.36458333333334,91.8625992063492,66.49292615596964,10366.666666666668
121.41001466582864,91.91091556672951,67.09553739786298,10400.0
122.4681767955801,92.34075138121548,66.84300552486188,10433.333333333334
122.45792265193373,92.35485082872928,66.79874033149171,10466.666666666666
121.76761014344262,92.27847506830601,66.97331796448087,10500.0
123.30888030888028,93.64169884169884,68.18408408408408,10533.333333333334
124.6281949585757,93.93618896527408,68.82357218402962,10566.666666666666
126.22298611111107,94.74293981481479,68.935,10600.0
127.33997588823489,95.19745644516938,69.33780110157673,10633.333333333332
127.36245656336428,95.21185258728696,69.37602534099237,10666.666666666666
127.11840476190477,95.04961904761903,68.86347619047619,10700.0
127.34092050209206,95.0534847579199,69.04126718469814,10733.333333333332
127.54860909881195,95.1502704530088,68.9553752535497,10766.666666666668
127.74548440065682,95.17782285327922,69.14720370906984,10800.0
127.77099639855942,95.55078031212484,69.26057623049219,10833.333333333334
127.75013205282112,95.53505402160864,69.24499399759904,10866.666666666668
128.46334989285018,95.50942431326708,69.60678453146308,10900.0
126.72726188772829,94.91250536557449,68.61918729431964,10933.333333333334
125.45581911499514,94.19244462939844,68.2913950154899,10966.666666666666
125.22000641084348,94.23665170803189,68.08693561681473,11000.0
122.77821695213,92.42011418533156,67.21835748792272,11033.333333333336
122.79797979797979,92.41949934123848,67.19424681598596,11066.666666666664
120.83213118927405,91.60479867622723,66.09370359370361,11100.0
121.1182920039402,91.41376504347082,66.30433851556812,11133.333333333332
120.61373078076149,91.41102402672493,65.7651505417791,11166.666666666664
119.44497985294727,90.75518215428072,65.2935238649109,11200.0
119.30155723905723,90.55601851851853,64.97649410774412,11233.333333333332
119.2452049007182,90.53438952260244,64.95811153358682,11266.666666666668
119.23724747474749,90.45829124579123,64.97659932659933,11300.0
119.28998732572876,90.61956062526406,65.05057034220532,11333.333333333336
118.9288439487126,90.5909308871052,65.21342645679141,11366.666666666668
120.6966289709945,91.7004057320442,66.18257941988949,11400.0
121.19268350553268,91.79210974741702,66.6927374301676,11433.333333333336
121.25233805233805,91.93243243243244,66.8504719004719,11466.666666666664
121.82236382681565,92.44072974860336,66.87798969972067,11500.0
125.92176419985584,94.536885912906,68.93943409825393,11533.333333333336
126.84788053949906,94.99185934489401,68.88398362235067,11566.666666666664
127.07414031573424,95.00221777078264,69.3287785567797,11600.0
128.53968332508654,96.00761999010392,69.58337456704601,11633.333333333332
128.6095744680851,96.08206333498268,69.56909945571499,11666.666666666664
128.82842657000094,96.26496521994707,70.05596649358284,11700.0
129.78959502806737,96.83560545308741,70.33455292702486,11733.333333333332
130.4363433837118,96.79352421457683,70.72400698716488,11766.666666666668
129.82668404170008,96.67682437850841,70.27438352044908,11800.0
128.6153565166569,95.71064679524643,69.96977888174557,11833.333333333336
128.58968926553672,95.72231151373465,69.96697837521917,11866.666666666668
128.2923208608462,95.62313524089019,69.28970408412815,11900.0
127.74675544794188,94.95721549636805,69.17455205811136,11933.333333333336
125.16111059522707,93.81688179032408,67.81918005385829,11966.666666666664
122.4225543478261,92.53866890959284,67.38718512767426,12000.0
121.70411582746176,92.2998367417082,66.73302973019419,12033.333333333336
121.64461247637051,92.32338030589449,66.65223835710603,12066.666666666664
121.70006071645416,92.06407754358574,66.82086477578281,12100.0
119.11582597730137,90.7699663724254,65.17200504413618,12133.333333333332
120.77815401652607,91.60837805605247,65.96920521339125,12166.666666666664
119.4135357368754,91.18161501159605,65.39590976175417,12200.0
119.69160104986878,91.13703327406654,65.66186182372364,12233.333333333332
119.69121089593531,91.05320280910831,65.5593317727176,12266.666666666668
119.77563334474495,91.40225950017117,65.3784876754536,12300.0
120.28125201539223,91.34264892404929,65.73110905690392,12333.333333333336
119.37173820654483,91.18650658733532,65.30699107522312,12366.666666666668
120.1402761892659,91.4470072436142,66.27964163171941,12400.0
120.77736423616986,92.36859245474541,66.77436136017593,12433.333333333336
120.77746997124008,92.40849687024193,66.75754948401286,12466.666666666664
122.98667294877836,93.0082564896457,67.39972179219671,12500.0
121.47799394725466,92.56141374837874,66.83955901426721,12533.333333333336
126.2804577955242,95.12241155167612,69.1772680843161,12566.666666666664
127.10431560071727,95.63022115959356,69.08638374178122,12600.0
126.95516291441055,95.01258668186571,69.21026883252588,12633.333333333332
127.00707703999241,95.06958297710648,69.24460910040848,12666.666666666664
126.76315161921114,95.23074354938713,68.87995421376449,12700.0
127.80915140622723,95.62010006314665,69.17591198329042,12733.333333333332
127.66979466466732,95.63201683314388,69.07349989116501,12766.666666666668
126.95652692326037,95.01805217723087,68.82427147422139,12800.0
127.26757662835251,95.27466475095785,68.83110632183909,12833.333333333336
127.26961206896551,95.29145114942527,68.80821360153257,12866.666666666668
127.0158344064482,94.74340630514618,68.85968426575094,12900.0
122.35943342277746,92.45071042097393,66.72484933796683,12933.333333333336
121.57816688283613,91.99861651534805,66.51772589710333,12966.666666666664
121.11465159107456,92.01053578311705,66.09790569189259,13000.0
119.68143679503792,90.65947277863924,65.26996197718631,13033.333333333336
120.0175060770182,90.89012324619387,65.47539340696832,13066.666666666664
120.14541429475015,91.94667931688805,65.81026776301918,13100.0
121.31079747561677,91.47017785427424,65.23162363740677,13133.333333333332
120.64114000777694,91.47768704682173,64.83027974107368,13166.666666666664
120.45881535288315,91.14787911398079,64.92381849161511,13200.0
120.10364541296744,91.3840014348489,64.61131288673661,13233.333333333332
119.75532033674996,91.1118778053192,64.42390746075344,13266.666666666668
121.25089212827987,91.69499708454808,65.30185422740524,13300.0
119.89265536723164,91.41327795270315,64.88486188338804,13333.333333333336
119.5056245434624,91.61984764687469,66.13471772931233,13366.666666666668
119.5754095004095,92.1571457821458,66.22979115479116,13400.0
120.09795498920973,92.23142534169148,66.82939060733737,13433.333333333336
120.14035556469015,92.25125886342613,66.88942554722023,13466.666666666664
121.63532119960415,93.10040445763953,67.27223441332129,13500.0
123.16005291005293,93.44232804232807,67.9820987654321,13533.333333333336
129.3599456099456,97.41258741258741,70.72166375291376,13566.666666666664
127.72940476190477,95.6519761904762,69.73738095238096,13600.0
127.72848011363637,96.0741240530303,69.64611742424242,13633.333333333332
127.72672821969697,96.1261600378788,69.57144886363636,13666.666666666664
128.290065913371,96.204802259887,70.09350282485876,13700.0
127.53172713265164,95.99855255171127,69.5586450016342,13733.333333333332
126.9425071779198,95.15126887098269,69.34386866722238,13766.666666666668
127.97741521801085,95.9683908045977,69.38052151610145,13800.0
127.12870485966616,95.33474360752764,69.42604152217136,13833.333333333336
127.13221898552736,95.32172747029176,69.42125583761039,13866.666666666668
122.42911067492074,92.81844653911692,67.05804447703889,13900.0
122.1239386296763,92.82269861286257,67.26864228667507,13933.333333333336
119.18012282034957,91.08178438661707,65.01031033703711,13966.666666666664
120.5434124386252,92.17986906710311,66.53811374795418,14000.0
120.71528871391077,92.0102580927384,65.34529746281714,14033.333333333336
120.69118547681542,92.01642607174101,65.30842082239721,14066.666666666664
121.09583179977915,91.58502024291498,65.11522359219728,14100.0
120.13027514819076,91.46713261965851,64.64429797398921,14133.333333333332
120.383611620932,91.47600608800751,64.95167644030619,14166.666666666664
119.95075706214688,91.31997740112995,64.41421468926553,14200.0
120.08818834796487,91.41283142679792,64.99175312583135,14233.333333333332
120.11940232331293,91.41673317371641,65.00583045136118,14266.666666666668
120.88521316906044,92.10276132779707,65.22226760147937,14300.0
121.48170841593081,92.37887457199496,66.10058118579924,14333.333333333336
119.96142241827756,92.43565201106972,66.1933248715121,14366.666666666668
120.54301075268816,92.46404699630509,66.74280732345247,14400.0
119.5610527163626,92.12550843703434,66.45094841126011,14433.333333333336
119.8941881731355,92.27764681975208,66.50908351960983,14466.666666666664
121.94670988788636,93.31462019697314,68.07736460677637,14500.0
122.25180949933615,93.189387125787,67.5231059146002,14533.333333333336
126.80941734417343,95.63082655826557,69.90456187895212,14566.666666666664
128.1527489626556,96.3331997359487,69.8905601659751,14600.0
127.62896471949104,95.68210526315792,69.85184499710816,14633.333333333332
127.91119988786095,95.73794505186432,69.89206616204093,14666.666666666664
127.0907781649245,95.50485481997677,69.30636469221835,14700.0
127.42982578397213,95.50787456445991,69.61080139372822,14733.333333333332
127.70743388468368,95.87375011681152,69.35805064947203,14766.666666666668
127.43766167775314,95.41798318551369,69.42999353288988,14800.0
122.70074045374321,93.00299194971805,67.07581040940204,14833.333333333336
122.67275819019329,93.00368074389772,67.01719832967412,14866.666666666668
122.24706400469759,92.92527891955372,67.31043956043956,14900.0
121.16752397282022,92.36514891725409,66.19531762663787,14933.333333333336
121.0837816739456,92.31442918328163,66.43652551849273,14966.666666666664
121.18362775217615,92.83032514080902,66.47205154463222,15000.0
121.37963426283943,91.95046172042031,65.6304871946504,15033.333333333336
121.30307828014385,91.97412525727728,65.69133512767738,15066.666666666664
119.4728491620112,90.93012290502794,64.32625698324023,15100.0
118.3579243852237,90.25108872278193,64.24112230527571,15133.333333333332
118.36567780046042,90.6248534074621,64.19395821569735,15166.666666666664
118.52579185520362,90.5568842921784,64.4469295410472,15200.0
119.79041319318593,91.44687839797028,64.84602664008699,15233.333333333332
119.8579369418626,91.40395480225989,64.79902496810644,15266.666666666668
120.82764336917565,91.95031362007168,65.94236111111111,15300.0
119.35842513259891,92.17686658506732,66.4156670746634,15333.333333333336
120.43413978494623,92.27074028122415,66.77307692307693,15366.666666666668
119.45180650341229,91.94237254114813,66.61637896427138,15400.0
122.02856045081968,92.74519723360656,67.50744962431693,15433.333333333336
122.08414446721312,92.76639344262293,67.52059853142076,15466.666666666664
122.36427754479605,93.19017664252131,67.7830939975431,15500.0
129.0389783031857,96.6087926696102,70.63848929402269,15533.333333333336
128.53967550934777,96.54471070912399,70.43771271387945,15566.666666666664
130.50813065946048,97.52216375100744,71.8203669463803,15600.0
130.43571495458374,98.02284858132784,71.93229703155724,15633.333333333332
130.3369109703855,98.07338424287576,71.95064257776122,15666.666666666664
132.89035705610883,99.08423609424338,73.01977167840658,15700.0
132.83341475329752,99.31348314606741,72.61072300928187,15733.333333333332
132.55389846975953,98.75606023803742,72.6844547000243,15766.666666666668
131.23921966294847,98.0705973248346,71.36206480274276,15800.0
130.7050895336589,97.41269271282198,71.27494493919372,15833.333333333336
130.776920302921,97.40949633369397,71.24291381175622,15866.666666666668
127.40610262875285,95.5795863099407,69.1833123219872,15900.0
126.42255984012354,95.00143071263115,69.13921060998321,15933.333333333336
122.54980620155035,93.14222652885445,67.10030146425495,15966.666666666664
121.59100937672363,92.4745428316857,66.87313844456702,16000.0
119.4478406708595,91.18620545073375,65.18654088050314,16033.333333333336
119.73855090832278,91.36977186311786,65.30302070130968,16066.666666666664
119.79894146688423,91.62581063553827,65.96535709802937,16100.000000000002
120.13273980713923,92.07200558281171,65.67740230079515,16133.333333333332
120.55626294889505,91.94818283839778,65.70375086325967,16166.666666666668
120.21836366758242,91.9948489010989,65.47877317994507,16200.0
119.34195064629849,91.2518675507806,65.48266745005876,16233.333333333336
119.27734529896692,91.30345403318377,65.62882187206512,16266.666666666664
119.40377428612724,91.8526211467388,65.95096318625731,16300.0
118.73918482226624,90.63869488168457,65.29019076409881,16333.333333333332
119.82360128075493,91.62668520390969,66.09386585776879,16366.666666666668
122.47830666930015,92.8016327605504,67.6073693681831,16400.0
125.58450008046532,94.76076511023749,68.78812331884957,16433.333333333332
125.66067223786881,94.81026363174662,68.73583729627407,16466.666666666664
127.3463663307647,95.2669353882632,69.59011262596324,16500.0
128.8505945531262,96.54715669351744,70.43014000767165,16533.333333333336
131.12253416149068,97.37291925465836,71.53940372670806,16566.666666666668
130.79051488548694,97.81150692882535,71.55391907905873,16600.0
131.49654652463641,97.93328955688507,72.06452162070141,16633.333333333332
131.49353448275863,98.05697888415344,72.20699341340566,16666.666666666668
131.39122433165443,98.2175513366912,71.87006005424254,16700.0
131.5569062378923,98.01019469197986,72.1921493607129,16733.333333333336
131.17362225789194,97.97818473661171,71.42932535629166,16766.666666666664
132.07528735632184,97.87748625687156,71.58950524737631,16800.0
129.50116397497453,96.65602114554537,70.06508560065959,16833.333333333332
129.52429797759348,96.62798874824192,69.99143993404142,16866.666666666668
127.47830578512398,95.31686701728023,69.4061560856499,16900.0
125.5522676613747,94.76345357776465,68.39469135240867,16933.333333333332
121.90097584725132,92.59397557206663,67.02131622954637,16966.666666666664
119.94537920642892,91.55598108153356,65.5931064791562,17000.0
120.49913542237779,91.52503057652565,65.86839441609379,17033.333333333336
120.24976763836081,91.24503591043516,65.64782425010563,17066.666666666668
120.3211534369015,91.82404766971695,65.864439242392,17100.0
119.86119004379871,91.24869137912614,65.62110885589145,17133.333333333332
120.04707182320442,91.22258563535911,64.99849723756904,17166.666666666668
120.25601461557085,91.15203275296604,65.27439413616253,17200.0
119.28410151939563,91.19435956200662,65.41344113402937,17233.333333333336
119.2732577879637,91.1883541295306,65.39366352601647,17266.666666666664
120.2684680851064,91.8531914893617,66.42204255319149,17300.0
119.60288605697151,91.49354489421957,65.62806096951525,17333.333333333332
119.85657839428332,91.25035729298023,65.958280790248,17366.666666666668
121.44639707734943,93.01459225665577,67.50581590660957,17400.0
122.18843901196844,92.94510228333758,67.78847296494354,17433.333333333332
122.54291923216226,93.1856531094872,67.9678079127341,17466.666666666664
124.88460674661995,94.38615640300051,68.57629250325652,17500.0
127.29178503787878,95.02457386363636,69.4250946969697,17533.333333333336
130.098886132594,97.25871880928058,70.97645799892992,17566.666666666668
130.9155210104445,97.65785766334707,71.78768520767551,17600.0
131.11887296575176,98.2441826572747,71.80264755890211,17633.333333333332
131.0255072463768,98.28316425120771,71.80857487922705,17666.666666666668
132.51930696724335,98.81522407895059,72.54886422366056,17700.0
131.9276683328433,98.80613545035774,72.04018425953151,17733.333333333336
130.99288066640835,97.71687330492058,71.47803661371563,17766.666666666664
130.6771204914784,97.44770610384464,70.6544540229885,17800.0
128.7795210569777,95.84827803953951,69.67251177927818,17833.333333333332
128.76582309224267,95.84359061543691,69.67248749210668,17866.666666666668
127.68004080244816,95.57397872443777,68.79708068198377,17900.0
122.03257115376208,92.08669610457744,66.58787653565341,17933.333333333332
120.23987743026207,91.5492180896027,65.70665680473373,17966.666666666664
118.55056925184044,89.6541260058209,64.32806882383153,18000.0
119.57747084893076,91.21838561163462,65.15472656081924,18033.333333333336
119.56506620013391,91.16173135488887,65.13013240026783,18066.666666666668
119.11632782302972,90.30142161465729,64.69940820649445,18100.0
119.4519651640269,90.46771355083254,64.32541401561302,18133.33333333333
120.08607780993064,90.63354921684808,64.7566487529282,18166.666666666668
119.1562275985663,90.5712365591398,64.52732974910394,18200.0
119.17451505453596,90.73955543944444,65.25833278906235,18233.333333333336
119.19787516600266,90.75681971567283,65.3129122852851,18266.666666666664
119.76406557377052,91.43012021857923,65.65626229508197,18300.0
119.28460761938202,90.40697419241572,65.21352703651685,18333.33333333333
118.90074102143069,90.91762452107278,65.35086943707633,18366.666666666668
120.6003244535519,91.86065573770493,66.62937585382514,18400.0
121.71086079943899,92.44499474053295,66.99167251051894,18433.33333333333
121.71217566619914,92.50951086956522,66.94328541374473,18466.666666666664
126.0177556818182,94.44966856060606,68.76460700757576,18500.0
127.17460047602856,95.1772720648953,69.12947491135182,18533.333333333336
130.04911180773252,96.8729412350102,70.99049609394437,18566.666666666668
130.55764055023923,97.56559011164276,71.20307515948963,18600.0
131.0450174181836,97.85032628428438,71.94683774103329,18633.33333333333
131.01715010612082,97.92964309238613,72.10297382352223,18666.666666666668
131.83499055384308,98.83690464353188,72.16232474893107,18700.0
133.10255958079307,99.30825817503904,72.88025898120624,18733.333333333336
132.06981998758536,99.08022346368715,72.27096213531969,18766.666666666664
131.95493188823704,98.33372278015312,72.24642040369892,18800.0
130.46508476246797,97.71148728562979,71.04642223536368,18833.33333333333
130.45333136211315,97.70648531440962,70.98462448255471,18866.666666666668
130.20612648221345,96.92919960474308,70.73073122529644,18900.0
128.5907876845377,96.17669483294485,69.74203574203574,18933.33333333333
126.69750300120049,94.40597839135654,68.64021608643458,18966.666666666664
125.31119047619049,93.87004761904764,67.64938095238095,19000.0
122.61634410615244,91.7652055884487,66.07931010273572,19033.333333333336
122.57212992693935,91.83389175857417,66.19661222020571,19066.666666666668
120.10429048631296,91.35523404624529,65.27794889592643,19100.0
118.82824427480915,90.01479007633587,64.45881766134629,19133.33333333333
118.9007631864162,89.94881231936415,63.99297778179191,19166.666666666668
119.08295700867052,89.80211343930634,64.21963059971098,19200.0
117.96094794496916,89.8273385949023,64.09099926683055,19233.333333333336
117.96407469702852,89.85280545133051,64.08515547505068,19266.666666666664
119.53596373259295,90.79005249229971,65.36642661923561,19300.0
120.3333984375,91.83057725694445,66.12471788194446,19333.33333333333
121.57442696629214,91.98916853932585,66.64878651685393,19366.666666666668
125.40978680784089,94.37554251919684,68.22771498068393,19400.0
126.04740783135405,94.5769542614585,68.84454142223494,19433.33333333333
126.0583995257854,94.64358032009486,68.94795494961471,19466.666666666664
128.27931716971796,96.10623453735774,69.7118258287976,19500.0
130.54466975519608,97.11392116655271,71.01083516872991,19533.333333333336
131.27462955546656,98.33117240688827,71.71005206247497,19566.666666666668
134.39779996879392,100.00283455557287,73.47675144328286,19600.0
135.42655502392344,101.05366826156299,73.85374800637959,19633.33333333333
135.46461988304094,101.122461456672,73.8168793195109,19666.666666666668
136.40800724541168,101.50683252976744,74.58597266988093,19700.0
135.851146862058,101.41799405330784,73.94666560475736,19733.333333333336
136.2385514820387,100.95159289466044,74.56457360044342,19766.666666666664
133.4029794025994,99.46816650198879,73.1056471840085,19800.0
131.25901972445237,97.46875309743284,71.98832887303003,19833.33333333333
131.12996817408035,97.37475637135174,71.97562479954605,19866.666666666668
131.12076560838526,97.38786774013874,71.35513190541295,19900.0
129.04002473716758,95.69795918367348,70.35116883116883,19933.33333333333
125.67496831134687,94.3055020891038,68.87394957983193,19966.666666666664
121.6487580698107,91.91417004048584,67.56500711237554,20000.0
120.67144165358452,91.70785365428223,66.60435199720914,20033.333333333336
120.64466684109541,91.698347287633,66.57243153671725,20066.666666666668
119.33888485055799,90.70909052037456,66.19008423483132,20100.0
117.10102897896928,89.05694829326973,63.99944147279327,20133.33333333333
118.14148086376404,89.72941537921349,64.83775895365169,20166.666666666668
116.74490011850348,89.22492381919756,64.2046089385475,20200.0
117.95292221744735,89.7718306832832,65.20318006016329,20233.333333333336
117.96794155565105,89.7671250537172,65.27483884830254,20266.666666666664
119.16934237637363,91.35675652472528,66.2267556662088,20300.0
121.75366273737896,92.70514684501309,67.63142237233544,20333.33333333333
121.6659195781147,93.00777851021752,67.91700725115359,20366.666666666668
124.5783694693347,94.2807233390594,69.20007892659827,20400.0
127.82797773654914,96.1600742115028,70.34335188620904,20433.33333333333
127.86993197278912,96.20390847247991,70.31616573902289,20466.666666666664
127.99874384236452,95.91770935960592,70.67231527093597,20500.0
129.49708433014354,97.27589214513556,71.47124202551834,20533.333333333336
130.28213631638866,97.67559273375242,72.47423649952978,20566.666666666668
131.73003174603176,98.9303873015873,72.9536,20600.0
134.01185211846976,100.19737248046071,74.43947963800905,20633.33333333333
134.04684286301935,100.25663307280956,74.46454648292885,20666.666666666668
134.59611937150692,100.76558051249607,74.15757144363599,20700.0
134.91168474674691,100.40699976245148,74.38847097949164,20733.333333333336
134.81365639929265,100.58004064718769,74.07825903344154,20766.666666666664
133.02450793650794,99.26704761904762,73.64403809523809,20800.0
131.74256736601373,98.6401014218952,72.78768519439197,20833.33333333333
131.86411985018728,98.67610486891384,72.7409238451935,20866.666666666668
130.93571931944024,97.26278566394843,71.93559347629116,20900.0
130.46856777493608,96.85506393861893,71.01557544757034,20933.33333333333
128.41159636680356,95.22053004852556,69.99370411845216,20966.666666666664
126.57452207331494,94.54082085139929,68.8519412692156,21000.0
121.02731299212601,91.16202129563351,66.58500357909807,21033.333333333336
121.00843324982105,91.1233670365068,66.58354957050823,21066.666666666668
118.38159965034966,89.75301573426573,64.86901223776222,21100.0
120.38957409460458,90.76522080561716,65.82069937176645,21133.33333333333
119.23288685468128,90.63644522222971,65.41486616858495,21166.666666666668
119.11555312157722,90.1309556407448,65.20283406352684,21200.0
119.01745951417006,90.4863130290762,65.10547018770703,21233.333333333336
118.99822874493928,90.49625046006624,65.10627530364373,21266.666666666664
118.91256497175141,90.4944406779661,65.485197740113,21300.0
118.52105142857144,90.24786285714286,65.00048000000001,21333.33333333333
117.88939393939394,89.61029411764706,65.20539215686274,21366.666666666668
119.0298222222222,90.94651111111112,66.1760888888889,21400.0
121.76092089728456,91.86184179456907,67.20949232585596,21433.33333333333
121.81584415584416,91.89634002361277,67.28,21466.666666666664
130.16803107727603,97.59690791531963,71.55660131400562,21500.0
129.37797462652955,97.036884117809,71.8109501288692,21533.333333333336
130.6601518415923,98.01005437570535,72.21309120755105,21566.666666666668
131.60248194486826,98.51118909571764,73.05355508086664,21600.0
132.06301355659815,98.9718758910288,72.89654993649395,21633.33333333333
132.09269291583504,99.02514321262863,72.8957723113611,21666.666666666668
133.30175339366517,99.82090703414234,74.2685623200329,21700.0
134.18080080238605,100.49557895848179,74.40494100878931,21733.333333333336
136.54292042569284,101.07965534006807,75.40667711090703,21766.666666666664
136.42923976608188,100.99281925744594,74.8829321365429,21800.0
136.33678770569836,100.27716578267372,74.79485924112608,21833.33333333333
136.33741330069356,100.24727322181423,74.76306269549843,21866.666666666668
134.56801896593058,99.37231293785463,73.26112783356864,21900.0
133.32396433909886,97.70953448644032,72.1591928251121,21933.33333333333
131.79819607843135,96.99767320261438,71.01037908496731,21966.666666666664
129.44807771593486,94.92153679653678,69.60505565862708,22000.0
127.11734744583582,94.024373881932,68.50218644404691,22033.333333333336
127.39894201018065,94.265196127358,68.60996606447749,22066.66666666667
121.3036342857143,90.30262857142857,65.81193142857144,22100.0
119.60662457073224,89.82835936634541,64.91953029799491,22133.33333333333
118.99300406073445,89.36950476694916,64.72680526129943,22166.66666666667
120.19852023121388,90.07926011560694,64.7074682080925,22200.0
120.38493714285715,90.30525714285713,65.18740571428572,22233.333333333336
120.40521142857143,90.28150857142856,65.23972571428571,22266.666666666664
120.0317359134889,90.31458167330679,64.91271485486625,22300.0
120.15205463858852,90.12334661354582,65.2185998861696,22333.33333333333
118.80935754189943,89.95404155027933,64.96560754189943,22366.66666666667
120.19784529196295,90.9247791424262,66.35026933850463,22400.0
122.26754820688411,92.04455757794196,67.06854838709678,22433.33333333333
122.3388369936444,92.09085563069686,67.0391061452514,22466.666666666664
128.55617670443252,95.227216259193,70.01433611608029,22500.0
129.3604947433519,95.97167594310451,70.55589363017936,22533.333333333336
131.20805605968945,96.74939503932244,71.60617059891106,22566.66666666667
132.29708812260537,97.81330779054916,72.35208173690933,22600.0
134.62421674370827,99.27429378531073,74.1971494607088,22633.33333333333
134.6928608115049,99.2657935285054,74.26083718541345,22666.66666666667
137.50823190610737,101.2616007389698,75.11519234948925,22700.0
139.1004761904762,101.75739495798321,76.00254901960784,22733.333333333336
139.79893146435342,102.22433503762852,75.89912104325846,22766.666666666664
140.0193032552827,102.15282695602512,76.28546544831525,22800.0
138.7029239766082,101.93700918964079,75.43130047340573,22833.33333333333
138.49011945345194,101.84884010975306,75.33649289099526,22866.66666666667
137.35419145484042,100.85113574905355,74.99586262844781,22900.0
134.9062230919765,99.59334637964777,73.44391389432485,22933.33333333333
133.13788546255506,97.87315366675304,72.30979528375227,22966.666666666664
130.10015133096826,96.37626832717258,70.5337517675953,23000.0
130.7673445130617,96.07909356347382,70.46980698173174,23033.333333333336
130.86062590975254,96.08822000415888,70.42183925972135,23066.66666666667
121.99220092531395,91.77655871337299,66.72256003525004,23100.0
120.7584176355126,90.87273786156469,66.25609887621061,23133.33333333333
120.52630208333332,91.19982638888894,65.89986979166667,23166.66666666667
120.44005497916113,90.77751174957878,65.7112707280305,23200.0
120.970685020393,90.87555617352614,65.05700778642937,23233.333333333336
120.91140619206526,90.90373563218391,65.01807563959954,23266.666666666664
121.1387597958812,90.9484235465646,65.75277929651905,23300.0
120.0014689843976,90.64141200560884,65.17196020387722,23333.33333333333
120.07594116503596,90.75807252856431,66.11008877081578,23366.66666666667
120.01860566448799,90.7693899782135,65.77322440087146,23400.0
120.21473869768042,90.53737343336843,66.23948233978976,23433.33333333333
120.28118752284112,90.57004965926436,66.26330158866651,23466.666666666664
122.28403766444404,91.70449630564066,66.89516129032258,23500.0
126.87273161984459,94.14302450687387,69.24999402271368,23533.333333333336
129.11326900470218,95.60229721786834,70.4349039968652,23566.66666666667
131.15616758720208,96.63489575558542,71.69094889784544,23600.0
130.86453201970443,96.74339453649799,71.36821416131761,23633.33333333333
130.99170414792604,96.85017491254374,71.34017991004498,23666.66666666667
131.49479785969086,96.87383571145462,71.84901407055094,23700.0
131.6245276881115,97.17996646898382,71.632910442159,23733.333333333336
132.07102287006785,96.91417441568231,71.80801708972103,23766.666666666664
132.408872041799,97.3670986579244,71.60582932076632,23800.0
131.80570195251718,97.10952165838478,71.59215479596445,23833.33333333333
131.81817497364858,97.113060282086,71.60407569141194,23866.66666666667
130.517612960761,96.36266349583828,70.64481767736821,23900.0
129.7408389822183,95.43707633362808,70.28747912368603,23933.33333333333
127.97978391356544,94.88338535414164,69.32424969987996,23966.666666666664
122.99674031148136,91.54201376312928,66.88742756247737,24000.0
120.9009009009009,91.10836550836552,66.02024882024882,24033.333333333336
120.88060918060918,91.08777348777348,66.00890175890176,24066.66666666667
120.48764945473656,90.40001313887794,65.64027942013752,24100.0
120.90221354166668,91.29214409722222,65.90690104166667,24133.33333333333
120.74018445322794,90.74310496267022,65.8767896354853,24166.66666666667
119.70089556113176,90.43923596088949,65.25259582936748,24200.0
119.95172219085262,90.61575381140598,65.38948008513225,24233.333333333336
119.9213612474482,90.62235590496459,65.44066802762455,24266.666666666664
120.43830570902394,90.91625010962028,65.52722967640096,24300.0
120.623776614011,90.82166466346158,66.14646291208791,24333.33333333333
119.95008613264427,90.33776916451336,65.55508182601206,24366.66666666667
121.40303325750187,91.1021341133138,66.59965334199978,24400.0
123.53353576248313,92.430971659919,67.57296446243815,24433.33333333333
123.72378162329107,92.46334650497343,67.50869782440843,24466.666666666664
126.7096877869605,94.20307621671257,69.53484848484848,24500.0
128.32899606345615,95.3295382221908,70.20345095820663,24533.333333333336
130.81506453477172,96.55601040261992,71.71715469081103,24566.66666666667
132.22889724310778,97.50147869674187,71.99641604010027,24600.0
132.68406381443046,97.74431917170661,72.68441225515815,24633.33333333333
132.387179105957,97.6069977202894,72.54371097234612,24666.66666666667
132.27383784319557,97.81576469422144,72.17784220438102,24700.0
132.6922262552934,97.7596289574511,72.18095886267392,24733.333333333336
132.69021216264116,97.61314496936556,71.85576484885311,24766.666666666664
132.00208793908132,97.22780643576515,71.99405551461557,24800.0
130.23965811965812,96.16759462759462,70.5434188034188,24833.33333333333
130.34896382587368,96.18788473329245,70.52654812998159,24866.66666666667
130.5381428465107,95.8156739189759,70.636656826019,24900.0
123.97456983240221,92.68138547486036,67.67340782122905,24933.33333333333
122.08709649725277,91.70059237637363,67.11480511675825,24966.666666666664
120.27245046745004,90.64460931469252,65.36383909426195,25000.0
121.31988759187205,91.29930825767404,66.37587548638133,25033.333333333336
121.27645914396886,91.1812581063554,66.35475572849114,25066.66666666667
119.90181016775075,90.78532608695652,65.55075316672372,25100.0
121.67581260844419,90.88680161943321,65.42038172353962,25133.33333333333
121.32412827988337,90.71664139941693,65.04438483965015,25166.66666666667
121.24744663231505,90.57216139124034,65.34477364740522,25200.0
121.02688927147516,90.76954965567234,65.31705328017398,25233.333333333336
121.02731656279852,90.80159668835009,65.30043670108721,25266.666666666664
120.16160885294744,90.66975952330284,66.04603107044052,25300.0
120.50777146988158,91.07246284365631,66.14126852501542,25333.33333333333
120.43648849527878,90.71075937441117,66.50526558214519,25366.66666666667
121.92958017305844,91.82484777267383,67.29283196239717,25400.0
123.37107535321822,92.31048316762602,68.08106575963718,25433.33333333333
123.4772152450724,92.33374760160471,68.1553724053724,25466.666666666664
129.14656177156178,95.60858585858584,70.146925990676,25500.0
129.92617826617823,95.64349206349208,70.66566544566544,25533.333333333336
130.5080341880342,96.53499389499387,71.13714285714286,25566.66666666667
131.83338309200377,97.07545902373491,71.93170622480967,25600.0
131.2696303160359,97.35261412407336,71.90553062817011,25633.33333333333
130.92416340721425,97.23277319040031,71.83511999613694,25666.66666666667
132.0732006877917,97.78693195774994,72.33836895111767,25700.0
132.0508965856055,97.8885286170474,72.18309997543602,25733.333333333336
133.05498669879034,97.73565728053005,72.43218892737038,25766.666666666664
130.11912639048714,96.47475546605291,70.82918584579977,25800.0
131.4062090290662,96.78045763760048,71.36331478045764,25833.33333333333
131.38139764996907,96.77335807050093,71.30196660482375,25866.66666666667
124.59742340147106,93.11748116059744,67.81496773611299,25900.0
120.48267966304644,90.7166144990862,66.06968048232254,25933.33333333333
120.03145921351965,90.39194020149496,65.22456938576535,25966.666666666664
120.38809142857143,89.69209142857143,64.86754285714287,26000.0
120.473086627418,89.95009812167088,64.35861134473414,26033.333333333336
120.48021212970751,89.96311092421269,64.37982431548454,26066.66666666667
120.57101401792609,89.63061945660057,64.37815637359294,26100.0
120.4123624836845,89.72869662502329,64.06290788737647,26133.33333333333
120.46138248847929,89.69085253456221,64.52877880184332,26166.66666666667
120.61083743842363,90.04921416842598,64.51860192352802,26200.0
120.45341502973507,90.1173860154983,65.54444494503514,26233.333333333336
120.56422163827473,90.0900462123958,65.48692914099311,26266.666666666664
120.7553547523427,90.69529228023205,65.83029897367247,26300.0
120.25604424430551,90.0539719319722,65.74716915140121,26333.33333333333
120.90470588235293,90.80570806100218,66.31777777777778,26366.66666666667
123.61561161774168,92.35456744103485,68.03811932814129,26400.0
128.00263120466505,95.00035556819796,69.96252311193287,26433.33333333333
127.90288924558588,95.03222075346993,69.96001321877064,26466.666666666664
129.5963351416516,95.59035563592528,70.94215792646173,26500.0
129.34741896758706,95.79368547418969,70.61750300120049,26533.333333333336
130.69681452097606,96.39523981247746,71.70816203870658,26566.66666666667
131.8597267080745,97.15694409937888,71.64116770186335,26600.0
130.6363745642505,96.67738910926792,71.23505228993871,26633.33333333333
130.58129582882557,96.73674720519293,71.24212044716913,26666.66666666667
130.65215148835838,96.4653453187936,70.72458001768345,26700.0
131.56044506816357,96.53448275862068,71.1902566158781,26733.333333333336
125.25268586162441,93.3941827064438,68.36848890597788,26766.666666666664
123.83765496672527,92.2700482984264,67.72516637361171,26800.0
120.46545478069609,90.51628067451591,65.38114029413032,26833.33333333333
120.39129684737136,90.51725104584463,65.3409669211196,26866.66666666667
121.29066840277778,90.8681206597222,66.06931423611111,26900.0
120.54974019629611,90.3092330239375,65.01703157614247,26933.33333333333
121.30882488479263,90.17758064516129,65.05612903225807,26966.666666666664
121.09917201166179,90.42281049562679,64.58236734693878,27000.0
119.76937210050066,89.50048229295851,64.00808414863809,27033.333333333336
119.75667171925957,89.50615497680401,64.03651646685958,27066.66666666667
119.87369741192566,89.95626496408619,64.32618857598905,27100.0
121.0058209647495,90.0987012987013,64.80452226345083,27133.33333333333
120.91409650828936,90.48784384551264,64.99909697138095,27166.66666666667
121.95433236151605,90.63750437317785,65.70784839650146,27200.0
119.51780306307863,89.98185082633901,65.16461884572121,27233.333333333336
119.53218828415676,90.01977156701565,65.17242796573504,27266.666666666664
120.87097753491196,90.93169398907105,66.2141122387024,27300.0
119.49293081220458,89.84488611946712,65.122690159003,27333.33333333333
120.46384743661007,90.4188651815111,66.2554624363963,27366.66666666667
122.58434856745414,91.62937784658185,67.02820219425186,27400.0
124.47612129597604,92.39075291133403,68.25363772627695,27433.33333333333
124.84071964434564,92.614453088821,68.42458553301843,27466.666666666664
129.56892587594342,95.62408157145,70.34952766531714,27500.0
129.68677367176807,95.70625855418687,70.60273733980341,27533.333333333336
130.55266121162074,96.51735355203564,71.06200735680505,27566.66666666667
131.11374717265645,96.58921839658205,71.52691631063081,27600.0
129.845568420002,95.98435472602057,70.49583291745681,27633.33333333333
129.84217486775123,95.98660045912766,70.45690687693383,27666.66666666667
130.544160768453,96.01342264914057,70.97944893832154,27700.0
130.7829489505053,96.22746825602488,70.59854884685151,27733.333333333336
130.07815261661418,95.52944491406029,70.47035016265787,27766.666666666664
130.2786539113208,96.01524906811251,70.29791726403046,27800.0
128.20334685598377,94.35141987829614,69.2968813387424,27833.33333333333
128.202915821501,94.36219574036512,69.25309330628804,27866.66666666667
121.96662844305072,90.97617654630129,65.97257260536847,27900.0
121.53734074429882,90.67400901209999,66.33152633866283,27933.33333333333
119.36067779602259,89.29930669585842,64.49131089217296,27966.666666666664
120.6259543817527,89.43659063625452,64.67342136854742,28000.0
119.86129507851444,89.6348318550935,64.51906110318036,28033.333333333336
119.85747575557856,89.56482440448168,64.37289332454571,28066.66666666667
120.08908045977007,89.7026325546904,65.03564145346681,28100.0
119.53686308651028,89.81508889296188,64.74589901026393,28133.33333333333
119.70225563909777,89.90144592249855,64.82965876229035,28166.66666666667
119.33148771142885,89.48413699654238,64.50892439958882,28200.0
119.89103044496487,89.58484777517565,65.05170960187354,28233.333333333336
119.94538641686182,89.58903981264638,65.15325526932084,28266.666666666664
119.18013894000737,89.55385075450864,64.78903662127347,28300.0
119.58063109581181,89.54522088353413,65.26508318990247,28333.33333333333
120.54693274205471,90.37961936437546,65.92625184774575,28366.66666666667
122.48539469934455,91.18383680060795,67.01838130521516,28400.0
128.81431888544893,95.46081011351907,69.97017543859647,28433.33333333333
128.7982456140351,95.52378740970072,69.92592879256965,28466.666666666664
130.82484518471063,96.45088618407006,70.90574951953876,28500.0
131.08048767330203,96.49595403787019,70.81172789556021,28533.333333333336
131.11733489001512,96.25889564040651,71.10929498235465,28566.66666666667
130.15690708252114,96.15399610136451,70.62287199480181,28600.0
130.45341176470586,96.32036601307188,70.73304575163398,28633.33333333333
130.3552837064029,96.28196251952109,70.66317022384175,28666.66666666667
130.68575655114114,96.49413567202028,70.60553148774302,28700.0
131.11444375822347,96.22864584731882,70.63113235412581,28733.333333333336
130.91720291720293,96.30936293436295,70.54716323466324,28766.666666666664
127.54895298499949,94.31191482935672,69.0109483539716,28800.0
122.21102715466353,91.06340023612749,66.34115702479339,28833.33333333333
122.22141676505314,91.07275088547816,66.28059031877214,28866.66666666667
121.54328344419807,90.54660938654841,66.25658259423503,28900.0
119.17873199376088,89.07936507936508,64.32904394898614,28933.33333333333
120.48759092854088,89.74618456710883,64.7967004231446,28966.666666666664
119.81633964429145,89.8827538726334,64.84702237521515,29000.0
119.01985319028799,89.48345567476002,64.57172219085263,29033.333333333336
119.03396950875212,89.46333145115757,64.59376623376622,29066.66666666667
119.23914046992569,89.47770391912478,64.44296727138439,29100.0
119.49672727272728,89.62154545454545,64.97768181818181,29133.33333333333
119.02282306519596,89.64182584521568,64.73919379427853,29166.66666666667
120.2152534562212,89.96656682027651,65.39472350230415,29200.0
119.30882121232584,89.79787066423573,65.03106219191032,29233.333333333336
119.3542824858757,89.78983050847458,65.01344632768361,29266.666666666664
120.88851529083463,90.49006152931221,66.1068185457124,29300.0
121.94055009183695,91.3080607286508,66.60298528283461,29333.33333333333
123.04678185543965,91.7130681818182,67.49802067809239,29366.66666666667
129.1016177957533,95.74459049544997,70.20439838220425,29400.0
132.09756680022292,97.03820946214876,71.68625786080081,29433.33333333333
132.17281821317695,97.05328097221854,71.68846021174409,29466.666666666664
131.10348558621223,96.95179946930469,71.36401576628796,29500.0
132.97333333333333,97.87330718954249,72.59785620915031,29533.333333333336
131.15392829900836,97.21601830663616,71.64042715484362,29566.66666666667
131.93170794633642,97.53261093911249,71.87327141382869,29600.0
132.61817225509537,97.8445496383958,71.78435239973702,29633.33333333333
132.55742274819198,97.86548323471399,71.7343063773833,29666.66666666667
133.5221619897959,97.92091836734691,72.26990327380952,29700.0
130.88373165296244,96.41450856835472,70.65613873306181,29733.333333333336
131.0964332205155,95.94103098151524,70.66261390262953,29766.666666666664
128.68960670632228,94.83156388826143,69.2783424942901,29800.0
122.69195402298851,90.93783908045977,66.69478160919539,29833.33333333333
122.63652873563221,90.93666666666668,66.66475862068965,29866.66666666667
121.08448979591834,90.44884353741492,65.59433106575963,29900.0
121.37022189073281,90.47492075330973,65.41972776431103,29933.33333333333
119.54973170900215,89.46456946779357,64.0720585864634,29966.666666666664
120.05786145580757,89.28956877288071,64.20769742785147,30000.0
120.4876301137739,89.88552408617771,64.24289518276446,30033.333333333336
120.48525780682644,89.88559670781895,64.220697167756,30066.66666666667
120.5607803662161,89.83127216949478,64.6928146869907,30100.0
119.58550765740215,89.6089525430138,64.2520325203252,30133.33333333333
119.67600464576073,90.01451800232289,64.83363530778165,30166.66666666667
119.438809914343,90.0856114452342,64.97892746491708,30200.0
118.6936864633494,89.26154806491886,65.03513465311218,30233.333333333336
118.75601926163723,89.29195648296772,65.06275637595863,30266.666666666664
120.27022185476092,90.38978457581186,65.51724771485003,30300.0
121.13904661599048,90.7972570748237,66.40246359556735,30333.33333333333
122.21196792391254,91.62145088349108,66.7379831227563,30366.66666666667
128.06311042455653,95.0104395056807,69.70218756228823,30400.0
129.63442529627906,95.94516896962169,70.19132639859235,30433.33333333333
129.65414273145993,95.98809708637377,70.20387620969828,30466.666666666664
131.1661367249603,96.65749867514572,71.04191838897721,30500.0
129.8891465079733,96.31805652162713,70.57755622536517,30533.333333333336
130.89478905597326,96.42922410192145,71.07380430242272,30566.66666666667
130.95903455552624,96.70538116591929,70.79293062516486,30600.0
130.28059381054615,96.14696025553751,70.3704508561554,30633.33333333333
130.2609578344612,96.19146277980221,70.42152524726704,30666.66666666667
129.35451933928385,95.67015491946242,69.83028111213707,30700.0
130.07728104575162,95.38661437908495,70.04177777777778,30733.333333333336
128.03653072074124,94.73000683527,69.03394850763273,30766.666666666664
122.42689693438757,91.16657418967031,66.83361076432237,30800.0
120.53186363636362,90.37245454545454,65.49186363636363,30833.33333333333
120.5274318181818,90.35329545454545,65.46497727272727,30866.66666666667
119.02662902315079,89.00230378317335,64.549926595144,30900.0
119.7870164517563,89.61384006927055,64.37668203412042,30933.33333333333
119.95119614989254,89.48876273245493,64.90038314176246,30966.666666666664
118.78395399780943,89.33009309967142,64.33214676889375,31000.0
118.83074520101412,89.35301973922493,64.54808040565013,31033.333333333336
119.19100401606428,89.49904761904762,64.65877223178428,31066.66666666667
118.82930285714286,89.52772571428572,64.30278857142858,31100.0
119.57578812316716,89.78010447214076,65.02384989002933,31133.33333333333
119.85120040786056,90.02176028921025,64.76478494623656,31166.66666666667
119.21033579965851,89.45976095617529,64.90388161639157,31200.0
119.5116629213483,90.07341573033709,65.28950561797754,31233.333333333336
119.52278651685394,90.10642696629215,65.32211235955057,31266.666666666664
121.54282677040692,91.25230135932873,66.85425101214575,31300.0
126.7692269744956,94.47930541167185,68.9205021952543,31333.33333333333
128.4890602944142,95.40265174430328,69.81236136317806,31366.66666666667
130.57528265107211,96.57829759584145,70.75552956465236,31400.0
130.2371534477506,96.09162689143902,70.98227886665991,31433.33333333333
130.31060221387224,96.12181375038082,71.03351274499849,31466.666666666664
130.40075657560678,96.50743881385193,70.8526962526658,31500.0
131.77753774076,96.7443258719417,71.37722540343572,31533.333333333336
131.63573659552316,96.79815200416449,71.16259760541385,31566.66666666667
130.97400050929465,96.08991596638657,71.17995925642984,31600.0
130.31425544559573,95.63401462494508,70.1061729671068,31633.33333333333
130.3032221389628,95.632128368776,70.08888659207773,31666.66666666667
130.61514525534085,95.33114556912376,70.23219935674503,31700.0
129.29557621865314,95.00642946796793,69.52862522093292,31733.333333333336
127.8067414602314,93.72198378636145,68.83904324473559,31766.666666666664
121.16081309994354,90.41321287408243,65.72377188029364,31800.0
121.5918708113177,90.74784418673805,66.0198769413756,31833.33333333333
121.21627753953669,90.54893018401287,65.88460054908901,31866.66666666667
119.13944868607956,89.315673828125,64.61081764914773,31900.0
119.51735574229693,89.27542857142859,64.90395518207283,31933.33333333333
120.50880795910915,90.33803395399781,65.34047553851771,31966.666666666664
120.70548478739003,90.55175494868037,65.50082478005865,32000.0
120.29556571428571,90.25620571428571,65.17362285714286,32033.33333333333
120.28846815834768,90.21411359724613,65.1554561101549,32066.66666666667
119.35220561918396,89.49143253400145,65.05203113815318,32100.0
120.67656500802569,91.01981897627964,66.22616818262887,32133.33333333333
123.56968444778364,92.17176934635613,67.68559823441022,32166.666666666664
128.43232186331352,95.37180935170544,69.90444996611701,32200.000000000004
130.78563272085538,96.301775147929,71.13160489982351,32233.333333333336
130.829699989619,96.34721789681305,71.12490916640714,32266.666666666664
132.15058514135438,97.45656804733729,71.7047731755424,32300.0
132.33000623830318,97.394260761073,72.19528488251196,32333.333333333336
133.21353833013026,97.95537048900276,72.19245142002991,32366.66666666667
133.67396982781602,98.12625939549015,72.42883415960341,32400.0
133.8557123350023,98.31066427481323,72.3803850170018,32433.33333333333
133.87223218827813,98.32836220514606,72.38879220327185,32466.66666666667
135.4221007526232,98.5644399274845,73.04306982365543,32500.0
134.66317365269458,98.3899564507349,72.49363091997823,32533.33333333333
134.18179870947014,97.77263112800878,72.46266298963828,32566.66666666667
133.1744038155803,97.43126656067831,71.74552199258082,32600.0
131.6918850380389,95.80515638207943,70.76632502113272,32633.33333333333
132.00090216785628,96.0193435402128,70.89564040650622,32666.666666666664
130.86681107354184,95.6773562975486,70.07626267962807,32700.000000000004
128.32610134963076,93.91560988031576,68.93559969442322,32733.333333333336
121.50839272318079,90.15594523630907,65.56172636909227,32766.666666666664
121.40823987287844,90.36759321097117,65.7893973239988,32800.0
119.7970868347339,89.79775910364145,65.060324929972,32833.333333333336
119.7654005602241,89.80349579831932,65.05375910364145,32866.666666666664
120.79188862845372,89.6359589932997,65.12167057319411,32900.0
121.159409646546,90.40829621908462,65.16042831422345,32933.33333333333
120.65013302486989,90.43905147484095,65.47916714864084,32966.66666666667
120.4723069105691,90.60767738359202,65.31896711012564,33000.0
121.08985236314831,90.53503978525549,65.26950915540216,33033.33333333333
121.05862274734457,90.58262322472851,65.28950948800572,33066.66666666667
119.55630113061865,89.78665318503538,64.74443882709808,33100.0
120.61372836869968,90.70525824102495,66.35143912095735,33133.333333333336
121.88628800917955,91.35015490533564,66.60810097532989,33166.666666666664
123.97709601873535,92.1453395784543,67.85918032786886,33200.0
130.68106757348585,96.38259010227478,70.79769173300356,33233.333333333336
130.7013937192467,96.43099672823764,70.80518844836025,33266.666666666664
130.92120652508464,96.11562532061147,71.05737662870627,33300.0
131.04362992922142,96.62441860465117,71.13986349848331,33333.333333333336
132.7017624521073,97.25823754789272,72.27977011494255,33366.666666666664
133.55954280333745,98.03256349227108,72.47589778463632,33400.0
134.29440177369543,98.25364900889488,72.7020877873677,33433.33333333333
134.36321165571303,98.28709055876686,72.79942988360123,33466.66666666667
133.7924330005255,98.1184971098266,72.36678928008408,33500.0
134.1291554416342,97.92195224021134,72.82164622185023,33533.33333333333
132.77194605009635,97.49153500321131,71.87766217084136,33566.66666666667
131.16474791583963,96.35649067090117,71.41492159587138,33600.0
130.986809314034,96.41135305223412,70.94877281309,33633.333333333336
131.07410872313528,96.44705436156765,70.9321618204804,33666.666666666664
128.51236435225198,94.97913665610297,70.18911456832805,33700.0
123.51206865320171,92.33685807444981,67.56340005434289,33733.333333333336
122.39529644981079,91.6011443503334,66.82769417913138,33766.666666666664
120.20258717660292,90.09037120359957,64.99534308211473,33800.0
120.70710112359552,90.61604494382023,65.80701123595507,33833.333333333336
120.74370786516857,90.57083146067416,65.82319101123596,33866.666666666664
120.43477953646128,90.28796872055777,64.76476823063878,33900.0
121.36934648336323,90.14679218967922,64.72230524008765,33933.33333333333
121.00373311953501,90.15102848695913,64.24337935008644,33966.66666666667
121.26457100591715,90.19068047337278,64.76227810650886,34000.0
120.51684124543532,90.2069719392658,64.67482702287141,34033.33333333333
120.49288871804727,90.21290601576014,64.68095329617528,34066.66666666667
120.29724880382776,90.09422156790579,65.43204821494295,34100.0
121.00649947177436,90.92473933213907,65.86649671581462,34133.333333333336
119.66214005602241,89.66868347338936,65.17653781512605,34166.666666666664
120.25723311546841,90.67832244008714,66.15104575163399,34200.0
122.63343108504401,91.4338801319648,67.11008522727273,34233.333333333336
122.69029508797657,91.45339992668622,67.18894336510265,34266.666666666664
127.89349438652764,94.6573777064956,69.34545408981556,34300.0
130.4361197110423,95.83405572755414,70.7107069143447,34333.333333333336
130.08927183208084,95.6833635656906,70.2289971495206,34366.666666666664
130.31901856089502,95.7977879481312,70.79870327993899,34400.0
130.65828409966608,96.33978936552788,70.78646288209606,34433.33333333333
130.70827125610072,96.39296172617519,70.77025430259441,34466.66666666667
131.040737874097,96.6017285861713,70.88846749226006,34500.0
130.48937483920758,96.22312837664008,70.4762799073836,34533.33333333333
130.79668846672894,95.85876673933352,70.69542198691995,34566.66666666667
130.1756053111169,95.66110387919814,69.9680551939599,34600.0
128.79030906366665,94.75351093277806,69.62048911801305,34633.333333333336
128.78538232978644,94.75472991848034,69.61581633948752,34666.666666666664
123.6492726576706,92.062661498708,66.79349698535745,34700.0
121.89796531791909,90.92693641618496,66.15937572254336,34733.333333333336
120.35857963875205,90.32788268564128,65.15362160189746,34766.666666666664
118.81664386684906,89.09872321021432,64.10191518467853,34800.0
120.05137675497788,89.83093022705212,64.3842602457561,34833.333333333336
120.07294552169898,89.82932026422331,64.40710751237067,34866.666666666664
120.29403794037941,90.25021026072329,64.97514251004579,34900.0
120.48180076628351,90.43918792636202,65.04950471918511,34933.33333333333
120.2594930875576,90.10663594470046,65.35283410138247,34966.66666666667
118.60405602240897,89.33503641456583,64.47796078431372,35000.0
120.03314564729686,90.40590771125677,66.02993445651695,35033.33333333333
120.11956187040865,90.42176571503981,66.12409272863239,35066.66666666667
121.58424211876832,91.21927694281528,66.54545454545455,35100.0
128.2446621892542,94.89943364073777,69.8075380914194,35133.333333333336
130.52145112042643,96.44325415308182,70.7485638875951,35166.666666666664
130.6039087618035,96.34766208450421,71.23417128680286,35200.0
132.3516281512605,97.63954831932772,71.82791491596639,35233.333333333336
132.3829831932773,97.66192226890756,71.81769957983194,35266.666666666664
132.10400082438107,97.44181672978334,72.24466084447536,35300.0
133.1094699350513,98.3585795097423,72.52529855436832,35333.333333333336
133.8951793721973,98.67614243006621,72.55872304078581,35366.666666666664
132.8721675591548,97.94410298346035,71.75686512437679,35400.0
132.68524206142635,97.54177511712648,71.90981259760541,35433.33333333333
132.52036433266056,97.47171764218807,71.90358639962739,35466.66666666667
131.72322751322753,96.934708994709,70.74989417989418,35500.0
131.46798941798946,96.60272486772487,70.90862433862435,35533.33333333333
124.09982507288628,92.84142274052479,67.63673469387756,35566.66666666667
123.39371884580281,92.0062951955255,67.03423743886171,35600.0
121.40112723621759,91.38273548740416,66.05360076670317,35633.333333333336
121.00737957261862,91.18765845708076,65.86483611010503,35666.666666666664
120.23151445086704,89.90675144508671,65.17308670520232,35700.0
121.70532174079204,91.18917498686285,65.48387713180146,35733.333333333336
121.65127004399037,91.01516011541555,65.8112908566293,35766.666666666664
121.04771999246279,90.89942528735632,65.35215281703411,35800.0
121.772030651341,91.10115415543257,65.90769121612033,35833.333333333336
121.75663727219285,91.18379776601999,66.03851851851853,35866.666666666664
121.036593947924,90.94578935022284,65.49615294393621,35900.0
120.56756571741512,90.46237221613728,65.78201442132165,35933.33333333333
123.26720560881384,92.07633423951923,66.93222683264177,35966.66666666667
124.93471788715486,92.8622569027611,68.11539015606242,36000.0
132.057056185703,97.4150092323925,71.60065945660776,36033.33333333333
132.05903455552624,97.4741756792403,71.59651806911106,36066.66666666667
133.0363292286369,97.50149261687723,72.1588037741884,36100.0
132.73185399159664,97.72975315126051,71.971743697479,36133.333333333336
134.2904739058585,98.60221760221759,72.89860866783944,36166.66666666666
133.0379489849037,98.0895887558563,72.19247787610621,36200.0
133.02526561285308,98.03760041461521,72.16846333246956,36233.333333333336
133.03874060637472,98.0642394402695,72.1717802539518,36266.66666666666
133.32450105042014,98.26024159663866,72.08017331932774,36300.0
133.16371241830063,97.70996078431372,72.13084967320259,36333.333333333336
132.39163809021366,97.3695858612503,71.17863360590874,36366.66666666666
129.62282928810805,95.4992383467046,70.17035645374226,36400.0
123.67577219620642,92.23175346483136,66.83903315831796,36433.33333333333
123.64940163663023,92.21910032638004,66.81415259448464,36466.66666666667
121.33933537263626,90.64309881349648,65.69157860585835,36500.0
121.09561341778091,90.8380014074595,65.25568848228946,36533.33333333333
120.81301204819277,90.79384968445207,65.59855421686747,36566.66666666667
119.93343376329912,90.24225590810656,64.51861877412672,36600.0
119.80214646767122,89.73418297678656,64.21146060417314,36633.333333333336
119.8349593495935,89.81391678622671,64.38307030129126,36666.66666666666
119.56589664205765,89.92603000714456,64.09919028340082,36700.0
119.75970548862117,90.24343350413143,64.89302035729123,36733.333333333336
121.0508143172617,91.61117500920132,65.84691295546557,36766.66666666666
120.86098285714287,90.87469714285713,65.89881142857143,36800.0
121.00055955951477,91.31523344822956,66.34189086351225,36833.333333333336
121.0447423787994,91.36736201262366,66.38683468373696,36866.66666666666
122.81671554252199,91.84397910557185,67.39413031524927,36900.0
128.25141828227518,95.2564994326871,69.83668787923635,36933.33333333333
131.57690918472653,96.71666666666668,71.47489680082559,36966.66666666667
130.77656477438134,96.636676203383,71.21088691462128,37000.0
132.63038883654605,97.4057192330218,72.33029461943927,37033.33333333333
132.66868681724426,97.43347508339487,72.35649716075477,37066.66666666667
133.49259568255292,98.05297736990299,72.1571853165085,37100.0
134.22634778012684,98.43208245243127,72.55502114164905,37133.333333333336
133.45434873292314,98.11309834185005,72.16161747836063,37166.66666666666
131.16840914802714,96.46541844684592,70.98876602161346,37200.0
130.74825068451474,96.16481594158807,70.53047358280094,37233.333333333336
131.09454813984874,96.41852766672608,70.62104351811769,37266.66666666666
131.2133393330333,96.69019049047549,71.4449277536123,37300.0
124.30171467764059,92.76028806584362,67.8387288523091,37333.333333333336
124.57566167334788,92.49072836814592,67.66537731204727,37366.66666666666
120.8631177849928,90.65097402597401,65.5498060966811,37400.0
120.61069345726266,90.3435620557682,65.47799343903772,37433.33333333333
120.6047703663204,90.32629396755968,65.51624293785311,37466.66666666667
120.28072462773622,90.69219332555643,65.20993160868272,37500.0
119.8431093785829,90.33276771382714,65.23136895207521,37533.33333333333
119.47050754458158,90.31880216688756,64.73423077817303,37566.66666666667
119.70052035365627,90.36694142567691,65.2278274083625,37600.0
120.05366087970906,91.09773782565931,65.43898533818249,37633.333333333336
120.03166082882228,91.19301278260471,65.56309420916162,37666.66666666666
120.60023191094619,91.14526901669758,65.72852504638219,37700.0
119.68799999999999,90.74103370786516,65.63566292134831,37733.333333333336
121.70630997382959,91.97519404120159,67.35708054667055,37766.66666666666
123.72145199592896,93.63758905348864,68.60854913490897,37800.0
130.64056214802895,97.02798169750601,71.7973652453741,37833.333333333336
130.67513073209977,97.04168342719228,71.82391391794046,37866.66666666666
131.31504002463058,97.31380849753694,71.53774117405581,37900.0
130.73789790686678,96.74446850344708,71.74869956942679,37933.33333333333
132.47180801491146,97.82199440820128,71.98809153981568,37966.66666666667
134.10025835706,98.329774333017,72.82342085837816,38000.0
133.42450365726228,98.16381922675026,72.28244514106585,38033.33333333333
133.43524033437828,98.19639498432602,72.23910658307209,38066.66666666667
134.20373299588738,98.37345776652958,72.71098281134662,38100.0
133.74374114312707,98.289140817719,72.4317167900068,38133.333333333336
132.25180093344156,97.51651278409092,71.96088676948051,38166.66666666666
131.57992836965295,97.10699152542372,71.46120863599675,38200.0
132.33992277992277,97.28375804375808,71.96066924066923,38233.333333333336
132.16914798206278,97.19948750800768,71.93734785393978,38266.66666666666
127.46532051889022,94.9808966953887,69.57963261054824,38300.0
123.5797332832457,91.72295266716756,67.06395567242674,38333.333333333336
119.75776602775943,90.06276712932366,65.21121392377177,38366.66666666666
119.47247655819085,89.51821290678434,64.89103143960287,38400.0
119.14899732620319,89.55456773618538,64.60713012477719,38433.33333333333
119.15548128342243,89.58389037433155,64.61352495543672,38466.66666666667
119.23463224767359,89.82473604151754,64.75073818897637,38500.0
118.85336452762922,89.7499108734403,64.57482174688057,38533.33333333333
118.68093629552641,89.9389589017366,65.0450824996752,38566.66666666667
119.95254721124287,90.89791392182696,65.84784804567414,38600.0
120.9943100377883,91.5097945532728,66.96829257698823,38633.333333333336
121.07236242018853,91.52669070060374,66.99326760196325,38666.66666666666
123.41574968688495,93.22000805152979,68.22298264448023,38700.0
126.56906384754484,94.68859832150973,69.84021885287709,38733.333333333336
130.39453183520598,96.88976279650437,71.33423220973782,38766.66666666666
131.49247592295345,97.11742576243981,72.0900632022472,38800.0
131.24964218455744,97.16451977401128,71.64308851224105,38833.333333333336
131.2641305712492,97.18757062146892,71.61822975517892,38866.66666666666
132.08542852824104,97.25210359248248,72.2552274903008,38900.0
132.23756624541377,97.54448634325315,72.08025886669384,38933.33333333333
133.45399698340873,97.81640401518698,72.6206636500754,38966.66666666667
132.95552682611506,97.92023270846799,72.18016806722689,39000.0
133.09560950413223,97.80795454545456,72.21531508264462,39033.33333333333
133.07926136363636,97.80823863636364,72.21707128099173,39066.66666666667
131.47566081517348,96.88395379338176,71.23534604519773,39100.0
131.95850473056356,96.83859522830113,71.52082476347181,39133.333333333336
127.36668756329266,94.52924723923422,69.13437334233495,39166.66666666666
124.36891000638254,92.06495993191973,67.46422239557478,39200.0
121.18632528894217,90.7489426186868,65.86574084545269,39233.333333333336
121.14294438287382,90.76622260421145,65.80992015922921,39266.66666666666
119.6129798985875,89.28913889894966,64.85240854762768,39300.0
120.72521828454028,90.2118877527198,65.06852033431386,39333.333333333336
120.99678833485711,90.56525306514757,65.39440185667064,39366.66666666666
120.63334960823973,90.51975076143313,65.30350375485341,39400.0
120.7661939352012,90.31961259079904,65.59418886198546,39433.33333333333
120.809200968523,90.30955839963104,65.63770321687997,39466.66666666667
119.9628457965942,90.40236925355049,65.38318637679208,39500.0
120.38106214689266,90.57374011299434,65.58255367231638,39533.33333333333
122.427180481131,92.0844601527762,67.0080720556379,39566.66666666667
124.00425089313978,92.97431375209152,68.47668792113237,39600.0
130.95225074687326,97.08129525545598,71.31437034786572,39633.333333333336
130.56215765959058,96.8269934624025,70.95267183279904,39666.66666666666
131.03433217888872,96.63371480198765,71.48514279977914,39700.0
130.44825108997227,96.667236424891,71.11689952437575,39733.333333333336
133.2324009083402,97.59831750619324,72.39559248554913,39766.66666666666
133.20205550377966,97.91407787097442,72.13979496738119,39800.0
133.72262146539603,97.70475967296775,72.40001562255897,39833.333333333336
133.77003593188564,97.69801593501015,72.41483101598709,39866.66666666666
132.55971304706853,97.23567815854663,71.59034372419488,39900.0
130.99037821034713,96.21841462512027,71.50474921668763,39933.33333333333
132.3998023612628,97.01412076767046,71.44206064388621,39966.66666666667
132.0314141571748,96.67197170645443,71.43197066625058,40000.0
127.16479258290741,94.41504813978365,69.32378461904196,40033.33333333333
127.15471294425294,94.38072031380008,69.25123023891597,40066.66666666667
122.86321374906086,90.852507513148,66.55052592036064,40100.0
120.06947845804987,89.55541950113378,64.88022675736961,40133.333333333336
119.72281179138321,89.1657142857143,65.05551020408163,40166.66666666666
119.33876117496807,89.22628170041962,64.65038314176246,40200.0
120.74001099706743,90.16014479472142,65.76890120967742,40233.333333333336
120.74243951612905,90.14676502932552,65.81485978739003,40266.66666666666
120.36627854295034,90.34924338528452,65.61138546574847,40300.0
121.76875360313619,90.97170529228642,66.43542026980283,40333.333333333336
122.53278309520506,91.79118694224812,67.02825172238406,40366.66666666666
123.8578397373653,92.42708188838026,68.09985203680584,40400.0
130.890507518797,96.62544381787802,70.92442042606515,40433.33333333333
130.92854532163742,96.67844089390141,70.93366228070175,40466.66666666667
131.1487864203281,96.70915489313252,71.18930807845571,40500.0
132.02286821705422,97.51180878552972,71.69937984496123,40533.33333333333
132.48022713961956,97.68320134450356,72.50854319981666,40566.66666666667
132.73271676300578,98.18093770070652,72.28855491329479,40600.0
133.54493273542602,98.49914157591287,73.18224215246637,40633.333333333336
133.86553795174487,98.59837423630528,73.1706275240758,40666.66666666666
133.87494148853173,98.84004264835907,72.94310084776616,40700.0
134.31151505695115,98.70338586362926,73.289436729599,40733.333333333336
134.2223308668076,98.57122093023256,72.7909619450317,40766.66666666666
133.7151361888204,97.68979505821613,72.53371792845478,40800.0
132.8220356658671,97.36927729690271,71.80190843675044,40833.333333333336
132.29136950904393,97.06645994832041,71.55576227390179,40866.66666666666
130.26454197143852,95.53642334676815,70.80041797283177,40900.0
130.24357135539393,95.42260014342793,70.0411843048868,40933.33333333333
128.69476766008557,94.41085504091284,69.57458148787629,40966.66666666667
123.0432380952381,91.07490476190478,66.42466666666667,41000.0
121.58718255428782,90.25188627162308,66.19624125874124,41033.33333333333
121.91344947735192,90.33268292682926,66.26290360046458,41066.66666666667
120.05018140589571,89.76111111111112,65.15696145124717,41100.0
119.110628342246,89.16067290552584,64.95222816399286,41133.333333333336
118.5755166572558,89.00119706380579,64.36569169960475,41166.66666666666
118.9090909090909,89.04894931457432,64.77789051226551,41200.0
119.12210249909454,89.43179554509236,64.86861644331763,41233.333333333336
119.10003414911782,89.36856004553215,64.73434262948207,41266.66666666666
119.81693714285713,89.53725714285713,65.32114285714286,41300.0
120.83745773854244,90.36577291510143,65.6282400450789,41333.333333333336
123.33195794577708,92.19323029582488,67.73326806070354,41366.66666666666
122.77667588657269,92.4815039690571,67.95720614360565,41400.0
130.36800514800515,96.47698841698843,71.05773487773487,41433.33333333333
130.4166537966538,96.50890604890604,71.0740797940798,41466.66666666667
130.96474060267164,96.86874805840323,71.20037278657969,41500.0
131.4599226935205,97.0136812124911,71.90873258061235,41533.33333333333
132.21372126436782,97.6555829228243,72.11268472906404,41566.66666666667
133.66895511520258,97.88001248244656,72.8552036199095,41600.0
133.3925012840267,98.2082948125321,72.62914740626606,41633.333333333336
133.37984078068826,98.35842321520286,72.61692347200822,41666.66666666666
134.0070545379919,98.46311117951876,73.17218203273306,41700.0
133.9540300651583,98.60076445538971,72.97155097224359,41733.333333333336
134.01156792645554,98.2167517875383,73.14149642492339,41766.66666666666
133.78956611570248,97.93708677685949,72.53780991735537,41800.0
133.80540022781403,97.53714921818373,72.37537537537537,41833.333333333336
134.32897074190177,97.77980668756531,72.61311389759665,41866.66666666666
133.1128881260727,97.27601809954751,71.74124928485983,41900.0
131.45709595959596,96.25775252525251,71.21603535353535,41933.33333333333
131.36859431296818,95.9933383446953,70.61059125430934,41966.66666666667
128.66555935515387,94.65100146555937,70.03373229115779,42000.0
123.48883426966292,91.66327247191013,66.90636704119851,42033.33333333333
123.42017790262173,91.65351123595508,66.90166198501873,42066.66666666667
123.61802048766413,91.32975039676815,66.84297600153897,42100.0
121.1394285976758,90.43537274355795,65.76002480363786,42133.333333333336
120.66454362170087,89.95559934017595,65.6473836143695,42166.66666666666
120.7746313364055,90.30794930875577,65.49476958525345,42200.0
120.63659863945576,90.10594104308392,65.77195011337868,42233.333333333336
120.28024844720501,89.9101976284585,65.65865612648221,42266.66666666666
120.29241231209734,90.37332229778096,65.64909180386542,42300.0
120.6546170365068,90.29145042949177,66.15007605583392,42333.333333333336
121.52375634045326,90.89662152729305,66.03157429382475,42366.66666666666
127.2520181383297,94.44169822603148,69.18691449073151,42400.0
128.32623577972416,95.11466827745896,69.545530051344,42433.33333333333
128.90325451309434,95.41784897025171,69.81106025934399,42466.66666666667
129.93948639715228,95.5969743198576,70.57325197050598,42500.0
129.9124940570027,95.99937442133974,70.67880289267573,42533.33333333333
132.9068203149442,97.17494003545731,72.2184795077693,42566.66666666667
132.56767441860464,97.18452196382427,71.81617571059431,42600.0
134.26333789329686,97.72640218878249,72.7396611596338,42633.333333333336
134.3932179311796,97.71132800168371,72.80298326844154,42666.66666666666
133.57083788422528,97.71789670775473,72.3001768346596,42700.0
133.8237909659195,97.65793947636858,72.29346376167186,42733.333333333336
133.499869974515,97.55994174858273,72.026811255006,42766.66666666666
132.80816326530612,96.70132653061223,72.06946428571429,42800.0
132.97575899599022,96.93232828203926,71.54132166848929,42833.333333333336
132.95443420298912,96.92891735666302,71.50283809821381,42866.66666666666
130.71871706068364,95.37519449882043,70.67916478442001,42900.0
130.2520434926536,95.3079880828092,69.96766061470296,42933.33333333333
127.26595744680851,93.57923114119923,68.93491295938104,42966.66666666667
123.15539057757854,91.43325395713684,66.65214549189896,43000.0
122.8717966836254,90.91042491049556,66.4626672319578,43033.33333333333
122.88680045223288,90.90861126813644,66.48002638025251,43066.66666666667
121.24776785714286,90.70519931457432,65.93014971139971,43100.0
121.28249007936508,90.58056006493507,66.11140422077922,43133.333333333336
120.68014705882351,90.55795454545456,65.65677361853832,43166.66666666666
120.57895798319328,90.482487394958,65.61299719887954,43200.0
120.72678991596642,90.62207282913164,65.59085714285715,43233.333333333336
120.72105322128851,90.61174229691878,65.60569187675071,43266.66666666666
120.73534950703446,90.75912263210371,66.0194749086075,43300.0
120.66744824814094,90.78767780978541,65.90399946405842,43333.333333333336
121.76330609795505,90.77383095600794,66.28467894566772,43366.66666666666
123.37234946871313,91.99992916174736,67.02885478158206,43400.0
127.65827081539786,94.42452342885254,69.3804452096913,43433.33333333333
128.0840373499333,94.67434909342423,69.66175090163529,43466.66666666667
129.85021867764343,95.74509904810907,70.12384872652433,43500.0
131.01878043125436,95.99010742715821,70.91016822526213,43533.33333333333
129.71721229663638,95.65193632099012,70.39377682403433,43566.66666666667
132.51204678362572,96.79857050032489,71.70284600389861,43600.0
132.11014470443348,97.01000615763546,71.68454946633825,43633.333333333336
131.76255427841636,96.84229885057472,71.42252873563218,43666.66666666666
132.25632225433526,97.03806255161024,71.52869529314616,43700.0
132.23248801608165,97.08703159630949,71.593964228648,43733.333333333336
132.71037323037322,96.97065637065636,72.04687258687258,43766.66666666666
131.19429095261134,96.31593287667744,70.8099870133177,43800.0
131.1519588953115,96.03971740526657,70.62625561978163,43833.333333333336
130.7597063788429,95.77720087984041,70.42442068648012,43866.66666666666
129.60591353692226,95.65927474551384,70.20712312402,43900.0
123.99997681911958,91.9127935278982,67.49189828229676,43933.33333333333
122.90706434189327,91.09369373637828,66.10046906093055,43966.66666666667
121.1087535571998,90.18741035856571,65.6526579396699,44000.0
119.03535297387435,89.2977209560867,64.45498610339077,44033.33333333333
119.01308198041058,89.18750838588488,64.29064358871148,44066.66666666667
120.98043108338058,89.95173945925505,65.08182076006807,44100.0
121.11692104767288,90.60688713020541,65.2289193517995,44133.33333333334
121.262139338494,90.58679333802486,65.56256157635468,44166.66666666666
121.39521936889984,90.83398085852363,65.41246564957832,44200.0
121.46290030499428,90.38912981319099,65.56562142584825,44233.33333333334
121.80775829203202,90.66336256195196,65.82000571864278,44266.66666666666
119.88414159454138,90.06269176168888,64.95189357512479,44300.0
120.8532249873032,90.8624991719478,66.44039128226643,44333.33333333334
121.88442668909448,90.93811326044296,66.13445005139707,44366.66666666666
124.12417657125442,92.07656422158144,67.70124481327801,44400.0
129.285866180603,95.28237259816208,69.7611199716463,44433.33333333333
129.33819396977293,95.30938457254247,69.78651173388016,44466.66666666667
130.22053752535496,95.40243407707909,70.45694726166329,44500.0
130.18881506090807,95.78495922681968,70.4069264069264,44533.33333333333
131.68700707785644,96.66804853387258,71.57077856420626,44566.66666666667
132.92713554720132,97.50623955722641,71.72227443609022,44600.0
133.26173219313796,97.62073730315987,71.91912608196894,44633.33333333334
133.12754360465118,97.5969165282392,71.87645348837209,44666.66666666666
133.6854940545091,98.07018836157002,72.094917394507,44700.0
134.0684257602862,97.95990739766388,72.62546038093234,44733.33333333334
133.3395764185238,97.68976871608452,71.75241030504189,44766.66666666666
131.98263326910723,96.70977520873475,71.37654463712269,44800.0
132.19172952021788,96.8322072072072,71.09485648439136,44833.33333333334
132.17630421118793,96.8153153153153,71.05764194426985,44866.66666666666
128.43601778656125,94.6675395256917,69.59120553359683,44900.0
123.08571428571429,91.50922448979591,66.50579591836735,44933.33333333333
120.95281480985236,90.36162658270248,65.8487081574775,44966.66666666667
120.25250717154331,89.87247274813541,64.90248995983936,45000.0
121.54798833819244,90.73198833819242,65.81644314868805,45033.33333333333
121.85454332552692,91.0118032786885,66.01456674473067,45066.66666666667
120.04056905588457,90.4674744174438,65.10112767453997,45100.0
120.4646902215604,90.7664139704887,65.66506475339561,45133.33333333334
120.53102806707057,90.89685294851722,65.40843600390262,45166.66666666666
121.42457607433217,91.23400696864113,65.79955865272939,45200.0
120.8663967611336,90.69769020149306,65.16346446373826,45233.33333333334
121.26908104282171,90.95781526483424,65.36335967913176,45266.66666666666
121.03156818181816,90.72806818181816,65.97754545454545,45300.0
120.89222072559454,91.33190540331663,66.35789520171352,45333.33333333334
123.59977827050993,92.2423780487805,67.54524667405765,45366.66666666666
128.655345074244,95.47859010408959,69.93922352128656,45400.0
130.94848231690338,96.38434470013418,71.15450241766031,45433.33333333333
131.00268347636768,96.4363686995266,71.21123515860359,45466.66666666667
130.88646288209608,96.67507870417386,71.0389966487255,45500.0
131.93882335148214,97.14952611413591,71.90761746319822,45533.33333333333
132.90320086593476,97.98123808051132,72.17939796917685,45566.66666666667
133.52100386100386,98.04223938223936,72.81528957528957,45600.0
133.15525854628206,98.04415034132818,72.31187717416891,45633.33333333334
133.16012345356106,98.11882405252008,72.23571260429472,45666.66666666666
133.21986242251458,98.03567598671306,72.33133680328513,45700.0
132.61598278856374,97.80279426631071,71.98125923429845,45733.33333333334
132.7753440991213,97.5886103838876,72.15267373441509,45766.66666666666
132.44184826790445,97.2770303936223,71.37492460598432,45800.0
131.03818323789693,96.09154086413326,70.62654867256637,45833.33333333334
131.54726890756302,96.34480042016807,70.83721113445378,45866.66666666666
129.9963729246488,96.21292464878671,70.38224776500637,45900.0
124.29249058380415,92.57617702448208,67.69908192090395,45933.33333333333
121.66979280759399,91.37319733479372,66.11557594012413,45966.66666666667
118.8815777972028,89.47467220279721,64.98940122377623,46000.0
120.48177419354843,90.72776497695853,65.17158986175116,46033.33333333333
120.42695852534565,90.71944700460828,65.13354838709678,46066.66666666667
119.48690909090908,90.00954545454546,64.89384090909091,46100.0
119.07775843108507,89.91046554252199,64.44052419354838,46133.33333333334
119.65132423020529,90.22472965542522,64.91365010997067,46166.66666666666
119.52895480225989,90.4739156187352,64.90673409877894,46200.0
119.94329861820162,90.46763324484378,65.34422435504732,46233.33333333334
120.34258336353753,90.79138727799929,65.72363175063428,46266.66666666666
120.60784357541901,91.52176536312851,65.91506145251397,46300.0
120.56090549766441,90.88245598275243,65.87502245777938,46333.33333333334
119.3013034188034,90.65510683760685,65.60241452991453,46366.66666666666
121.03278047083886,91.26978675303785,66.58711388387714,46400.0
123.01846603688708,92.63645973909132,67.49509671614935,46433.33333333333
122.98418592166777,92.73588028720334,67.58339857293042,46466.66666666667
124.28868526254324,93.17733459102548,68.51012891344384,46500.0
124.89105520295877,93.55148166750378,68.56278252134608,46533.33333333333
129.11371561410306,95.95224719101124,70.57390546299885,46566.66666666667
131.2319146264909,97.3135718769617,71.55344632768362,46600.0
130.30788959452858,96.39084025403031,71.3401074743527,46633.33333333334
130.43849535906205,96.40234489496824,71.4670981924768,46666.66666666666
131.41333333333333,97.05231746031748,71.30351746031747,46700.0
130.20497957786094,96.676229608433,71.3469807029129,46733.33333333334
132.5117777434153,97.86864079171177,72.0767486212051,46766.66666666666
132.2654336734694,97.75418367346936,71.96035714285716,46800.0
131.24972272635608,97.17264065335752,71.37724339584594,46833.33333333334
131.62990531166136,97.41581852245683,71.5606866170439,46866.66666666666
132.01839080459771,97.03586206896551,71.74227330779054,46900.0
131.9048760373177,97.32805010051027,71.53778155765167,46933.33333333333
127.6177343675189,94.5801015033994,69.55338504261229,46966.66666666667
123.26945616235321,92.29638581689659,67.11492418196329,47000.0
119.38028443405416,89.65034526051475,65.19345412039743,47033.33333333333
119.38281706604324,89.63149122237375,65.23207134662424,47066.66666666667
120.958211143695,90.85392228739003,65.43225348240469,47100.0
120.42990461812941,90.3398064914568,65.35920309247696,47133.33333333334
119.45593635250916,89.5523020431221,63.945791356746064,47166.66666666666
121.0145349542598,90.61636456285945,64.68704957414283,47200.0
121.11642381549746,90.85168387532568,64.85783556885072,47233.33333333334
121.07061221518526,90.73092135594864,64.71017446798186,47266.66666666666
120.59326765188835,90.27063101102509,65.03875205254515,47300.0
120.30687611960863,90.61540581507508,65.06572964034726,47333.33333333334
119.93000066772018,90.28787642725187,65.35936700126868,47366.66666666666
120.67423638778222,91.06693227091637,65.78594510845507,47400.0
120.69008227904095,90.44388657878444,65.89856675218971,47433.33333333333
120.72009643457493,90.49387330797134,65.92877996991949,47466.66666666667
121.46797545476385,91.34612276985573,66.42884283624136,47500.0
122.75112146307801,92.0387336093858,67.79166666666667,47533.33333333333
123.82804232804232,93.0108855928528,68.37017521033914,47566.66666666667
125.23559657218193,93.60026367831246,69.40421885299935,47600.0
131.2498662386303,97.10336105841722,71.80324918527167,47633.33333333334
131.58209574987788,97.35737664875427,72.0270395701026,47666.66666666666
131.697036982212,96.97688303357758,71.87499074827917,47700.0
130.31933640641506,96.43090367809471,71.2726159608182,47733.33333333334
131.6226428938293,96.60158485582214,71.80761611270086,47766.66666666666
131.41085728322278,96.73721444362565,71.39980348808648,47800.0
131.81735057983943,96.89466250371693,71.52287144414709,47833.33333333334
131.6787157500493,96.87780898876404,71.56753893159865,47866.66666666666
131.95887370311254,97.2082252593775,71.68717577813248,47900.0
124.73192890059252,93.0009216589862,68.7952380952381,47933.33333333333
122.87132608695651,92.0861086956522,67.43973913043479,47966.66666666667
121.36302681992336,90.04720853858784,65.42873107097245,48000.0
120.39439112381731,90.0600140675697,64.7790030177206,48033.33333333333
120.35182538061852,90.01023302248542,64.73174052140767,48066.66666666667
121.95208061476005,90.39152288434583,65.17087139335943,48100.0
121.26109533862319,90.33165902307637,64.48991774040911,48133.33333333334
121.69321705426356,90.42059108527133,65.04026162790697,48166.66666666666
121.07483663271192,90.3652940611186,64.55645781280029,48200.0
121.67188247679205,90.46482917025551,65.21827447602641,48233.33333333334
121.69717197817974,90.4738491721696,65.29342520815389,48266.66666666666
121.69540229885055,90.97936687394008,65.3679338609384,48300.0
121.40777599348608,91.08081333544432,66.11912785832222,48333.33333333334
121.4747182320442,91.55701657458565,66.3521767955801,48366.66666666666
121.36334635416668,90.97647569444445,66.68077256944444,48400.0
121.8874169308952,91.49094383876991,66.96225513616818,48433.33333333333
121.85913299299123,91.57367829021372,66.9532967032967,48466.66666666667
124.69905369969216,92.5228822255159,68.18599931592749,48500.0
124.3697263334882,92.79179664166722,68.45545452534236,48533.33333333333
131.32552653339172,96.44739530132787,71.76545551826452,48566.66666666667
130.67708562623818,96.14625675642624,71.05187467899333,48600.0
131.42910949690608,96.4067307457138,71.74136033458069,48633.33333333334
131.83547040039304,96.64180790960451,71.96873004175879,48666.66666666666
132.2287771570453,97.25194289261327,72.13507138423341,48700.0
131.6128093158661,96.84351022623541,71.97769718500975,48733.33333333334
131.68763009217957,96.99846367330757,71.88115769650112,48766.66666666666
132.24436802232856,96.94395434609251,72.15116626794259,48800.0
133.3067731149071,97.38380984473422,71.8786904792763,48833.33333333334
132.77221880131358,97.12566707717569,71.66163793103449,48866.66666666666
133.68956137368244,97.24688096670415,72.20864174927421,48900.0
130.40290381125226,95.55474894131882,70.21728171002218,48933.33333333333
124.74421087754422,92.9007229451674,68.67990212434657,48966.66666666667
121.3345052737318,90.79481580154172,66.26619789050729,49000.0
121.3089942196532,89.68393063583817,65.1966936416185,49033.33333333333
121.29230057803468,89.68101734104047,65.20679768786128,49066.66666666667
119.92363131742692,89.66703970634316,64.73606696808271,49100.0
120.25447858851135,89.58869184603583,65.06890483281441,49133.33333333334
120.1963573758608,89.9025462123958,64.82688474084813,49166.66666666666
120.19368539325843,89.6596629213483,65.0465393258427,49200.0
121.12353323910163,90.82122905027931,65.70566063135222,49233.33333333334
121.08429050279331,90.875217877095,65.71827932960896,49266.66666666666
120.5970975961006,90.08071341530965,65.5577711310513,49300.0
120.34806404532968,90.773673592033,66.04185267857143,49333.33333333334
121.58790849673201,91.08246187363834,66.77385620915032,49366.66666666666
123.06547252747251,92.48345054945057,67.59092307692308,49400.0
124.37718925447918,92.96273514214776,68.4111436687767,49433.33333333333
124.49240892961416,92.9788438215874,68.40800880384495,49466.66666666667
124.70581384932366,93.28213741825677,68.55648123264356,49500.0
131.68988837489945,97.05483205953337,71.66115245374094,49533.33333333333
129.71718260188086,95.8465909090909,70.51511069749216,49566.66666666667
129.9574079485681,96.00231346191308,70.9145967270602,49600.0
132.53212902568285,97.3401192417448,71.9241235222177,49633.33333333334
132.56308601712192,97.35757236037504,71.93163982878109,49666.66666666666
132.47497474747476,97.14017676767678,72.28598484848484,49700.0
132.62339285714287,97.38997448979592,72.03747448979593,49733.33333333334
132.77550505050505,97.2904797979798,72.35828282828281,49766.66666666666
133.4157283057851,97.62585227272729,71.96975723140496,49800.0
132.08419087974173,96.48178974979822,71.63092715899919,49833.33333333334
132.10812651331722,96.46612691686843,71.64066283292978,49866.66666666666
131.36721286525977,96.25175020292208,70.92517248376623,49900.0
123.94388876429691,91.9106974657995,67.73258578156538,49933.33333333333
122.37408988764044,91.0714382022472,66.30750561797754,49966.66666666667
121.26959590210586,89.87940808195789,65.47207740466705,50000.0
120.8673860154983,90.37511263290683,65.45737970805551,50033.33333333333
120.80938006848079,90.32697332852769,65.4229816183096,50066.66666666667
120.78709349593494,90.01829268292683,64.9723069105691,50100.0
121.78084842115321,90.49565279701906,65.02777910476281,50133.33333333334
121.76798305778163,90.13734267080595,64.98098813563401,50166.66666666666
121.50933823529414,90.14208333333332,64.57713235294118,50200.0
121.97061403508772,90.43040935672516,65.06825048732944,50233.33333333334
121.95952729044834,90.45514132553606,65.07514619883041,50266.66666666666
120.38860887096772,90.21123533724341,64.73900293255132,50300.0
120.82205063347313,90.72965896736116,65.97506046284586,50333.33333333334
120.53420138125193,90.71904280121409,65.8988914793472,50366.66666666666
122.09251264608407,91.60149572649573,67.32345630559918,50400.0
123.86300813008131,92.656684733514,67.81804426377597,50433.33333333333
123.98482993197278,92.70673469387756,67.84061224489795,50466.66666666667
128.126937846679,94.80261224102784,69.92469065566776,50500.0
131.58736134116347,96.83245495156349,71.29491040505947,50533.33333333333
130.72335124572547,95.99218368343918,71.25056179775281,50566.66666666667
130.92581827063995,96.44843673668785,71.22818759159745,50600.0
131.4364372667171,96.73206313581032,71.68878534312411,50633.33333333334
131.4993535166256,96.76221609621624,71.76109389866069,50666.66666666666
132.3592551210428,97.3228553693358,71.96936064556176,50700.0
132.4709124767225,97.33675977653631,71.91528243327126,50733.33333333334
131.68029272619748,96.72306820421842,71.38616203429923,50766.66666666666
131.59143241626793,96.01223584529505,71.11473285486443,50800.0
130.54864825082183,95.93059712477309,70.50191354693095,50833.33333333334
130.55475688140913,95.90922918404397,70.50154555713655,50866.66666666666
124.08646701703516,91.68219916636463,67.39069862268938,50900.0
121.70923721340392,90.67687389770724,66.06247795414463,50933.33333333333
121.95388672322862,90.2656500802568,65.85475808300849,50966.66666666667
121.33658480341288,90.39273607748184,65.25234636227373,51000.0
120.4508979835561,89.57753433466539,64.9150475403059,51033.33333333333
120.46318497083277,89.58927012998943,64.95454963024207,51066.66666666667
119.70650406504065,89.33449477351917,64.08943089430895,51100.0
119.57583403420244,89.25707877768433,64.04450518643118,51133.33333333334
119.97579665451828,89.68180543874405,64.3064900476591,51166.66666666666
120.91181538748137,90.43335506706407,65.13482675111773,51200.0
121.77857276468387,91.16152263374485,65.706088664422,51233.33333333334
121.78004582865694,91.18090628507295,65.74749812944258,51266.66666666666
121.88550437317785,90.81602332361516,65.94351020408163,51300.0
121.69023405972557,91.16967600599564,66.07494523233022,51333.33333333334
123.5103305785124,92.16647321014021,67.49238555111897,51366.66666666666
122.59684165790593,92.12013778602905,67.44695461560829,51400.0
129.31920965440514,95.91390360105444,70.91724104573267,51433.33333333333
129.02660855326528,95.7045848584088,70.75845212868427,51466.66666666667
130.10262008733625,96.31319472012704,70.75258038904326,51500.0
131.2611161524501,96.70863581367212,71.29897660818712,51533.33333333333
131.68730696798494,97.20494664155682,71.65687382297551,51566.66666666667
132.50824370941558,97.11977475649351,72.09423193993507,51600.0
132.33517857142857,97.21122448979591,71.77920918367347,51633.33333333334
132.2248634920635,97.1775492063492,71.71616507936508,51666.66666666666
132.18057142857143,97.10049523809522,71.6478984126984,51700.0
132.36376681614348,97.21368353619476,71.58249839846252,51733.33333333334
132.24194978591876,96.77494869651136,71.79096045197741,51766.66666666666
130.43250074338388,95.93958766973931,70.55146694419665,51800.0
131.23636363636365,96.02085858585859,70.96290404040404,51833.33333333334
131.172601010101,96.01775252525252,70.91568181818181,51866.66666666666
127.91790653314257,94.73998569384837,69.50789222699093,51900.0
123.22153542954405,91.68937561587387,67.55668279136435,51933.33333333333
123.48890508203657,91.70229420337549,66.64148371021578,51966.66666666667
121.66603845549795,90.69327589688362,66.36929842274124,52000.0
120.47410055865923,90.22567597765364,65.42498324022347,52033.33333333333
120.45693388077449,90.2014987323596,65.34268919252429,52066.66666666667
121.13642567958358,90.21913244650088,65.4496009253904,52100.0
120.41695374580864,90.1564236828809,64.98638096550457,52133.33333333334
119.7991079473779,90.1425031537214,65.06589025049557,52166.66666666666
119.95044585120142,90.09606788736868,64.88337530914619,52200.0
121.1909453436547,90.53136288998355,65.44637579169597,52233.33333333334
121.19641097818436,90.53068261787472,65.51344123856438,52266.66666666666
119.7851264367816,89.91340229885056,64.70466666666667,52300.0
119.39896512935884,89.78132733408323,64.84242969628797,52333.33333333334
120.18780286282127,90.59304169178893,65.56838837900004,52366.66666666666
121.87240418118463,90.91221835075493,66.30931475029035,52400.0
120.63787786706284,90.5590744367164,65.82704211402975,52433.33333333333
120.63901123595508,90.60134831460677,65.85741573033708,52466.66666666667
127.21795547524029,94.2221720251989,68.61310644278794,52500.0
127.73614709986047,94.68153278851904,69.08174705999602,52533.33333333333
129.09335038363173,94.8949872122762,69.7850895140665,52566.66666666667
129.90047233468286,95.58696667704763,70.11128412747846,52600.0
132.05542073331574,97.08699551569508,71.44355051437616,52633.33333333334
132.23480245177382,97.089288083424,71.3905325443787,52666.66666666666
131.89073417457504,97.29971842736471,71.46553342371467,52700.0
132.29866935901418,97.20371233302272,71.92567567567569,52733.33333333334
132.2397857889237,97.25723615464995,71.47147335423197,52766.66666666666
130.64348484848486,96.3761616161616,70.88138888888889,52800.0
130.8950379720854,96.43362582101804,70.54566912972084,52833.33333333334
130.53665389527458,96.2018390804598,70.2909067688378,52866.66666666666
129.95010249487524,95.82690865456726,70.6227188640568,52900.0
127.24121626536699,94.51213598118376,68.89602579956839,52933.33333333333
122.21365308625154,91.35858654675931,66.43993277921606,52966.66666666667
119.51697972111029,89.96813003123215,64.8902476575903,53000.0
120.63745517640257,90.1091035280509,65.08874493927127,53033.33333333333
120.59219727640779,90.1025947736474,65.23162035333088,53066.66666666667
119.3784863209745,90.14240386962211,64.94497326321861,53100.0
119.67118160755658,90.19145428622349,65.31493940474067,53133.33333333334
119.48277086245537,90.38620781468414,65.08564645321617,53166.66666666666
120.78875725900116,90.26715447154473,65.42390243902439,53200.0
119.437251984127,89.86226100288602,64.85132575757575,53233.33333333334
119.46809613997114,89.89666756854254,64.87806637806639,53266.66666666666
120.99120075808857,90.53201570326249,66.10171021163305,53300.0
121.22282807917887,90.56987719941351,65.83928244134897,53333.33333333334
123.11266010079993,91.45873214038008,67.15408979516344,53366.66666666666
127.4444526663707,94.343100981698,68.78326180257511,53400.0
128.14172132776784,94.43192208308487,69.20505366726296,53433.33333333333
128.2176257205327,94.45654442456768,69.24920492943748,53466.66666666667
130.17013164335214,95.76396939485277,70.02019733621866,53500.0
129.30991124260356,94.98411038563559,69.58572230157111,53533.33333333333
130.29126413684722,95.81881649792616,70.1694875956411,53566.66666666667
130.14716501398422,95.5186117467582,70.50905161454361,53600.0
130.04645308924484,95.81947622679888,70.30455123315535,53633.33333333334
129.9894084934277,95.88725985844287,70.36006066734075,53666.66666666666
130.30302568014238,96.08385456394608,70.43785914060513,53700.0
129.55983392825502,95.70466570466571,70.04321409584567,53733.33333333334
131.67162104362708,96.20305816937551,70.75879491017963,53766.66666666666
128.75659177182723,94.94408535959782,69.09436236790808,53800.0
123.17695850368908,91.42133088960944,66.85570280558296,53833.33333333334
123.14126016260164,91.32929192664021,66.71358007184723,53866.66666666666
121.65099101602293,90.94843475039364,65.7850097249236,53900.0
120.63871664140369,90.27341417481972,65.42198337237609,53933.33333333333
120.60887400980762,90.36191531497549,64.83810354583176,53966.66666666667
120.56039594714476,90.30601858336834,65.32306111967128,54000.0
119.97026674570242,90.08009484291641,64.58686425607587,54033.33333333333
119.94925903971546,90.0997273266153,64.53887374036749,54066.66666666667
120.01020070838251,90.27201889020071,64.62783943329399,54100.0
119.66437359128477,90.07900544703232,64.42806160781367,54133.33333333334
119.79687787806226,89.96039786332656,64.96021366734205,54166.66666666666
120.2410882685779,90.17762165220672,64.859039041871,54200.0
119.63344286235856,89.64028842643299,64.97528751369113,54233.33333333334
119.65727272727273,89.68302272727274,65.03918181818182,54266.66666666666
120.27828496162056,90.36630785302263,65.47617749920516,54300.0
121.76328200860037,90.75740971933232,66.51757062930595,54333.33333333334
123.05550338091659,91.7285875281743,67.03164913598798,54366.66666666666
129.1212719631374,95.5210896754266,70.0304825560788,54400.0
130.03982300884957,95.95896789462853,70.39954208684914,54433.33333333333
130.09935171846058,96.00589112986208,70.4843846470467,54466.66666666667
130.2538053097345,96.25742098609356,70.9582806573957,54500.0
130.5912634920635,96.62384761904762,71.00419047619047,54533.33333333333
131.45788604459125,96.9908649876135,71.32331234516927,54566.66666666667
131.64296638067344,97.14100935742243,71.23971590761812,54600.0
131.64538604459125,97.07901527663088,71.2578705615194,54633.33333333334
131.67255883567302,97.08291184971098,71.26726362510321,54666.66666666666
131.85842038414685,97.09339277845459,71.16301614868193,54700.0
130.7736674212801,96.1811586746244,70.42243774439184,54733.33333333334
130.72433035714286,96.22152720099669,70.18147840531562,54766.66666666666
129.70260577915377,95.25203818369451,69.75980392156862,54800.0
122.42095927344972,90.93815335130788,65.85662929851947,54833.33333333334
122.27487360376249,90.94920634920635,65.85274544385656,54866.66666666666
120.85387879200418,90.32670796179069,65.52542372881356,54900.0
120.44856579912023,90.18456744868037,65.01674761730206,54933.33333333333
121.16459774471714,90.0950914431915,65.20477589311096,54966.66666666667
120.44779242519355,90.36590639603821,64.98195810374091,55000.0
120.11429100676115,90.33310178753356,65.00338056867649,55033.33333333333
120.08729276650922,90.35065295915531,65.01829211818098,55066.66666666667
119.98262853949328,90.38342958271237,64.75493666169896,55100.0
120.19595721033623,90.26551356858387,65.20880800222284,55133.33333333334
120.80270564306323,90.579868501963,65.1838134430727,55166.66666666666
120.23801129943504,90.25145762711864,65.63977401129944,55200.0
121.24322114729529,91.10721260843893,66.31448426216106,55233.33333333334
121.25214606894673,91.15694690466458,66.23568151882637,55266.66666666666
122.45578469884023,91.003904788627,66.78787878787878,55300.0
122.81766401475844,91.72710711403204,67.07459933125793,55333.33333333334
130.43627488760438,96.07784200385358,70.59103403982017,55366.66666666666
130.34988730662843,96.17288187685688,70.46347710275587,55400.0
131.70744639376218,96.34167641325537,71.23046133853151,55433.33333333333
131.71612735542558,96.37203378817414,71.22152046783627,55466.66666666667
130.09840560576825,95.83512744998475,70.31631461358789,55500.0
129.9256716118685,95.7075230553328,70.38399659182036,55533.33333333333
130.23077116681768,95.98892580287928,70.48645927715695,55566.66666666667
130.76145018787452,96.13318777292575,70.73819437392099,55600.0
132.84895874679157,97.20541927972269,71.39308300918208,55633.33333333334
132.66903745851116,97.15868500079027,71.341631104789,55666.66666666666
132.2595194276679,96.72936053293243,71.45848777832501,55700.0
131.30668522241123,96.46783670944795,70.83712179784547,55733.33333333334
123.91748971193415,91.93609967992685,67.85434385002286,55766.66666666666
122.5910746812386,91.46621129326049,66.71231785063752,55800.0
121.92269841269841,91.01961451247166,66.30841269841271,55833.33333333334
122.01374985748491,90.97177060768442,66.26888610192681,55866.66666666666
120.11236055332441,90.0156626506024,65.26454707719768,55900.0
121.4097483095417,90.17613636363636,65.48340063861758,55933.33333333333
120.30217763082888,90.30534716679968,65.18260175578611,55966.66666666667
120.17190605239388,90.24037940379404,65.50158084914183,56000.0
119.87949412827463,90.33613369467028,65.24209575429087,56033.33333333333
119.84311201445348,90.33326558265587,65.20711382113821,56066.66666666667
120.01732751964391,90.53776627151748,65.24117727210792,56100.0
120.80832081142,90.65819872276484,65.23678155522164,56133.33333333334
120.64942437744557,90.65313369371,66.04154886571823,56166.66666666666
121.04952380952379,91.22226757369614,66.37260770975057,56200.0
122.37317415095193,91.67480667480669,67.4582146248813,56233.33333333334
122.72373081463994,91.87918899282536,67.66238307147398,56266.66666666666
122.83295570660624,92.36940779243858,67.88504598160736,56300.0
129.58241649321042,96.01129943502823,70.81591337099813,56333.33333333334
130.28722466960352,96.28385147891755,70.88538703587163,56366.66666666666
130.70108153907495,96.21917364433813,71.37116228070175,56400.0
131.11348551890586,96.69416230892999,71.2157582461786,56433.33333333332
131.25209595959595,96.79371212121212,71.20113636363638,56466.66666666668
131.7194191919192,96.66138888888894,71.55497474747473,56500.0
131.50699494949495,96.75727272727272,71.30989898989898,56533.33333333332
131.54096409944808,96.44592131247153,71.19730112917111,56566.66666666668
131.60321053714756,96.29460794402142,70.84554435068944,56600.0
131.27074997435108,95.99846106494309,70.66923155842824,56633.33333333334
131.28544680414487,95.97740330358059,70.68087616702577,56666.66666666666
131.49025048169557,96.32845215157354,70.78404624277456,56700.0
128.70821599723334,94.32829405661778,69.60219356751148,56733.33333333334
122.87810760667902,90.92778293135436,66.410853432282,56766.66666666666
121.89902824858757,90.61807909604521,66.10759322033897,56800.0
120.01980827767937,89.23592749080004,64.47383126618509,56833.33333333334
119.99852346553995,89.22050338467129,64.45524964790333,56866.66666666666
121.00265762463344,89.94382331378297,65.3861345307918,56900.0
120.03072175708485,89.77521384974928,64.6684137680666,56933.33333333332
119.50113905595043,89.27159650082012,64.51749589939857,56966.66666666668
119.02597047566977,89.23728813559322,64.11119464188081,57000.0
119.1112,89.77493333333334,64.78977777777779,57033.33333333332
119.15548862115124,89.74674252565819,64.77840249888443,57066.66666666668
121.0944799291342,90.85404913982005,65.53844002051379,57100.0
120.56087782721542,89.93291156840935,65.35041249536522,57133.33333333334
120.49403665702008,90.9384153292993,66.34153292993072,57166.66666666666
122.49507754253223,91.88911749740049,67.77843410544014,57200.0
122.71818579234971,92.3543387978142,67.97158469945356,57233.33333333334
122.740131147541,92.42349726775957,67.96528961748632,57266.66666666666
130.1858682396277,96.15017795365738,71.15844097662958,57300.0
130.64979232221523,96.36886091881685,71.03791063561991,57333.33333333334
131.18536340852128,96.30393483709274,71.5655388471178,57366.66666666666
131.6802031746032,96.76741587301588,71.44482539682541,57400.0
132.51311063218392,97.1230500821018,71.69673645320195,57433.33333333332
132.5373819786535,97.15612171592777,71.72772988505747,57466.66666666668
132.92238790514654,97.3810189499845,71.76739670705189,57500.0
133.1245987366677,97.41604535570052,71.89230609920266,57533.33333333332
132.93987423328696,97.42899850523169,71.7869182000928,57566.66666666668
131.35199250594968,96.00377234290345,70.83464985568891,57600.0
131.60745523770322,96.07365198600534,70.5890100843795,57633.33333333334
131.56505968306234,96.05929718048979,70.55492385264458,57666.66666666666
132.25837837837838,96.37379665379663,71.40499356499356,57700.0
