Time[ms],HR[bpm]
833,75.0
867,75.39267
900,75.4491
933,75.4491
967,75.4491
1000,75.4491
1033,75.4491
1067,75.4491
1100,75.4491
1133,75.4491
1167,75.4491
1200,75.4491
1233,75.4491
1267,75.0
1300,75.0
1333,75.0
1367,75.0
1400,75.0
1433,75.0
1467,75.0
1500,75.0
1533,75.0
1567,75.0
1600,75.0
1633,75.0
1667,75.0
1700,75.0
1733,75.0
1767,75.0
1800,75.0
1833,75.0
1867,75.0
1900,75.0
1933,75.0
1967,75.0
2000,75.0
2033,75.0
2067,75.0
2100,75.0
2133,74.22681
2167,74.22681
2200,74.22681
2233,74.22681
2267,74.22681
2300,74.22681
2333,74.22681
2367,74.22681
2400,74.22681
2433,74.22681
2467,74.22681
2500,73.68421
2533,73.68421
2567,73.68421
2600,73.68421
2633,73.68421
2667,73.68421
2700,73.68421
2733,73.68421
2767,73.68421
2800,73.68421
2833,73.68421
2867,73.68421
2900,73.68421
2933,73.84615
2967,73.84615
3000,73.84615
3033,73.84615
3067,73.84615
3100,73.84615
3133,73.84615
3167,73.84615
3200,73.84615
3233,73.84615
3267,74.11765
3300,74.11765
3333,74.11765
3367,74.11765
3400,74.11765
3433,74.11765
3467,74.11765
3500,74.11765
3533,74.11765
3567,74.11765
3600,74.11765
3633,74.11765
3667,74.11765
3700,74.11765
3733,74.11765
3767,74.11765
3800,73.46939
3833,73.46939
3867,73.46939
3900,73.46939
3933,73.46939
3967,73.46939
4000,73.46939
4033,73.46939
4067,73.46939
4100,72.4138
4133,72.4138
4167,72.4138
4200,72.4138
4233,72.4138
4267,72.4138
4300,72.4138
4333,72.4138
4367,72.4138
4400,72.4138
4433,72.4138
4467,72.4138
4500,72.4138
4533,72.4138
4567,72.4138
4600,72.4138
4633,72.4138
4667,72.4138
4700,71.64179
4733,71.64179
4767,71.64179
4800,71.64179
4833,70.78650999999998
4867,70.78650999999998
4900,70.78650999999998
4933,70.78650999999998
4967,70.78650999999998
5000,70.78650999999998
5033,70.78650999999998
5067,70.78650999999998
5100,70.78650999999998
5133,70.78650999999998
5167,70.78650999999998
5200,70.78650999999998
5233,70.78650999999998
5267,70.78650999999998
5300,70.78650999999998
5333,70.78650999999998
5367,70.78650999999998
5400,70.78650999999998
5433,70.78650999999998
5467,70.78650999999998
5500,70.78650999999998
5533,70.78650999999998
5567,70.78650999999998
5600,71.18644
5633,69.61326
5667,69.61326
5700,69.61326
5733,69.61326
5767,69.61326
5800,69.61326
5833,69.61326
5867,69.61326
5900,69.61326
5933,69.61326
5967,69.61326
6000,69.61326
6033,69.61326
6067,69.61326
6100,69.61326
6133,69.61326
6167,69.61326
6200,69.61326
6233,69.61326
6267,69.61326
6300,69.61326
6333,69.61326
6367,69.61326
6400,69.61326
6433,69.23076999999999
6467,69.23076999999999
6500,69.23076999999999
6533,69.23076999999999
6567,69.23076999999999
6600,68.10811
6633,68.10811
6667,68.10811
6700,68.10811
6733,68.10811
6767,68.10811
6800,68.10811
6833,68.10811
6867,68.10811
6900,68.10811
6933,68.10811
6967,68.10811
7000,68.10811
7033,68.10811
7067,68.10811
7100,68.10811
7133,68.10811
7167,68.10811
7200,68.10811
7233,68.10811
7267,67.5
7300,67.5
7333,67.5
7367,67.5
7400,67.5
7433,67.5
7467,67.5
7500,67.37968000000001
7533,67.37968000000001
7567,67.37968000000001
7600,67.37968000000001
7633,67.37968000000001
7667,67.37968000000001
7700,67.37968000000001
7733,67.37968000000001
7767,67.37968000000001
7800,67.37968000000001
7833,67.37968000000001
7867,67.37968000000001
7900,67.37968000000001
7933,67.37968000000001
7967,67.37968000000001
8000,67.37968000000001
8033,67.37968000000001
8067,67.37968000000001
8100,67.08074
8133,67.08074
8167,67.08074
8200,67.08074
8233,67.08074
8267,67.08074
8300,67.08074
8333,67.08074
8367,67.08074
8400,66.25766999999999
8433,66.25766999999999
8467,66.25766999999999
8500,66.25766999999999
8533,65.625
8567,65.625
8600,65.625
8633,65.625
8667,65.625
8700,65.625
8733,65.625
8767,65.625
8800,65.625
8833,65.625
8867,65.625
8900,65.625
8933,65.625
8967,64.28571
9000,64.28571
9033,64.28571
9067,64.28571
9100,64.28571
9133,64.28571
9167,64.28571
9200,64.28571
9233,64.28571
9267,64.28571
9300,64.28571
9333,64.28571
9367,64.28571
9400,64.28571
9433,64.28571
9467,64.28571
9500,63.95939
9533,64.28571
9567,63.31658
9600,63.31658
9633,63.31658
9667,63.31658
9700,63.31658
9733,63.31658
9767,62.42775
9800,62.42775
9833,62.42775
9867,62.42775
9900,62.42775
9933,62.42775
9967,62.42775
10000,62.42775
10033,62.42775
10067,62.42775
10100,62.42775
10133,62.42775
10167,62.42775
10200,62.42775
10233,62.42775
10267,62.42775
10300,62.42775
10333,62.42775
10367,62.42775
10400,62.42775
10433,62.42775
10467,62.42775
10500,62.42775
10533,62.42775
10567,62.42775
10600,62.42775
10633,60.67416
10667,60.67416
10700,60.67416
10733,60.67416
10767,60.67416
10800,60.67416
10833,60.67416
10867,60.67416
10900,60.67416
10933,60.67416
10967,60.67416
11000,60.67416
11033,60.67416
11067,60.67416
11100,60.67416
11133,60.67416
11167,60.67416
11200,60.67416
11233,60.67416
11267,60.67416
11300,60.67416
11333,60.67416
11367,60.67416
11400,60.67416
11433,60.67416
11467,60.67416
11500,60.67416
11533,60.0
11567,60.67416
11600,60.67416
11633,60.67416
11667,60.67416
11700,60.67416
11733,60.67416
11767,60.67416
11800,60.67416
11833,60.67416
11867,60.67416
11900,60.67416
11933,60.67416
11967,60.67416
12000,60.67416
12033,60.67416
12067,60.67416
12100,60.67416
12133,60.67416
12167,60.67416
12200,60.67416
12233,60.67416
12267,60.67416
12300,60.67416
12333,60.67416
12367,60.67416
12400,60.67416
12433,60.67416
12467,60.40268
12500,60.40268
12533,60.67416
12567,60.33519
12600,60.33519
12633,60.33519
12667,60.33519
12700,60.33519
12733,60.33519
12767,60.33519
12800,60.33519
12833,60.33519
12867,60.33519
12900,60.33519
12933,60.33519
12967,60.33519
13000,60.33519
13033,60.33519
13067,60.33519
13100,60.33519
13133,60.33519
13167,60.33519
13200,60.33519
13233,60.33519
13267,60.33519
13300,60.33519
13333,60.33519
13367,60.33519
13400,60.33519
13433,60.0
13467,60.0
13500,60.0
13533,60.0
13567,60.0
13600,60.0
13633,60.0
13667,60.0
13700,60.0
13733,60.0
13767,60.0
13800,60.0
13833,60.0
13867,60.0
13900,60.0
13933,60.0
13967,60.0
14000,60.0
14033,60.0
14067,60.0
14100,60.0
14133,60.0
14167,60.0
14200,60.0
14233,60.0
14267,60.0
14300,60.0
14333,60.0
14367,60.0
14400,59.60265
14433,59.60265
14467,59.60265
14500,60.33519
14533,60.33519
14567,60.33519
14600,60.33519
14633,60.33519
14667,60.33519
14700,60.33519
14733,60.33519
14767,60.67416
14800,60.67416
14833,60.67416
14867,60.67416
14900,60.67416
14933,60.67416
14967,60.67416
15000,60.67416
15033,60.67416
15067,60.67416
15100,60.67416
15133,60.67416
15167,60.67416
15200,60.67416
15233,60.67416
15267,60.67416
15300,60.67416
15333,61.76471
15367,62.42775
15400,62.42775
15433,62.42775
15467,62.42775
15500,62.42775
15533,62.42775
15567,62.42775
15600,62.42775
15633,62.42775
15667,62.42775
15700,62.42775
15733,62.42775
15767,62.42775
15800,62.42775
15833,62.42775
15867,62.42775
15900,62.42775
15933,62.42775
15967,62.42775
16000,62.42775
16033,62.42775
16067,62.42775
16100,62.42775
16133,62.42775
16167,62.42775
16200,62.42775
16233,62.42775
16267,62.42775
16300,62.42775
16333,62.42775
16367,62.42775
16400,63.380280000000006
16433,63.380280000000006
16467,63.380280000000006
16500,63.380280000000006
16533,62.93706
16567,62.93706
16600,62.93706
16633,62.93706
16667,62.93706
16700,62.93706
16733,62.93706
16767,62.93706
16800,62.93706
16833,62.93706
16867,62.93706
16900,62.93706
16933,56.84211
16967,56.84211
17000,56.84211
17033,56.84211
17067,56.84211
17100,57.14286
17133,57.14286
17167,57.14286
17200,57.14286
17233,57.14286
17267,57.14286
17300,57.14286
17333,57.14286
17367,57.14286
17400,57.14286
17433,56.25
17467,56.25
17500,56.25
17533,56.25
17567,56.25
17600,56.25
17633,56.25
17667,56.25
17700,58.69565
17733,58.69565
17767,58.69565
17800,58.69565
17833,58.69565
17867,58.69565
17900,58.69565
17933,58.69565
17967,58.69565
18000,58.69565
18033,58.69565
18067,58.69565
18100,58.69565
18133,58.69565
18167,58.69565
18200,58.69565
18233,58.69565
18267,58.69565
18300,58.69565
18333,58.69565
18367,58.69565
18400,58.44156
18433,58.44156
18467,58.44156
18500,58.44156
18533,58.44156
18567,58.44156
18600,58.44156
18633,58.44156
18667,58.44156
18700,58.44156
18733,58.44156
18767,58.06452
18800,58.06452
18833,58.06452
18867,58.06452
18900,58.06452
18933,58.06452
18967,58.06452
19000,58.06452
19033,58.06452
19067,58.06452
19100,58.06452
19133,58.06452
19167,58.06452
19200,58.06452
19233,58.06452
19267,58.06452
19300,58.06452
19333,58.06452
19367,58.06452
19400,57.69231
19433,57.69231
19467,57.69231
19500,57.69231
19533,57.69231
19567,57.69231
19600,57.69231
19633,57.69231
19667,57.69231
19700,57.69231
19733,57.69231
19767,57.69231
19800,57.69231
19833,57.69231
19867,57.14286
19900,57.14286
19933,57.14286
19967,57.14286
20000,57.14286
20033,57.14286
20067,57.14286
20100,57.14286
20133,57.14286
20167,57.14286
20200,57.14286
20233,57.14286
20267,57.14286
20300,57.14286
20333,57.14286
20367,57.14286
20400,55.55556
20433,55.55556
20467,55.55556
20500,55.55556
20533,55.55556
20567,55.55556
20600,55.55556
20633,55.55556
20667,55.55556
20700,55.55556
20733,55.55556
20767,55.55556
20800,55.55556
20833,56.5445
20867,56.5445
20900,56.5445
20933,56.5445
20967,56.5445
21000,56.5445
21033,56.5445
21067,56.5445
21100,56.5445
21133,56.5445
21167,56.5445
21200,56.5445
21233,56.5445
21267,56.5445
21300,54.87805
21333,54.87805
21367,54.87805
21400,54.87805
21433,54.87805
21467,54.87805
21500,54.87805
21533,54.87805
21567,54.87805
21600,54.87805
21633,54.87805
21667,54.87805
21700,54.87805
21733,54.87805
21767,54.87805
21800,54.87805
21833,54.87805
21867,55.38462
21900,55.38462
21933,55.38462
21967,55.38462
22000,55.38462
22033,55.38462
22067,55.38462
22100,55.38462
22133,55.38462
22167,60.40268
22200,60.40268
22233,60.40268
22267,60.40268
22300,60.40268
22333,60.40268
22367,60.40268
22400,60.40268
22433,60.40268
22467,60.40268
22500,60.40268
22533,60.40268
22567,60.40268
22600,60.40268
22633,60.40268
22667,60.40268
22700,60.40268
22733,60.40268
22767,60.40268
22800,60.40268
22833,60.40268
22867,60.40268
22900,60.40268
22933,59.66851
22967,59.66851
23000,59.66851
23033,59.66851
23067,59.66851
23100,59.66851
23133,59.66851
23167,59.66851
23200,59.66851
23233,59.66851
23267,59.66851
23300,59.66851
23333,59.66851
23367,59.66851
23400,59.66851
23433,59.66851
23467,59.66851
23500,59.66851
23533,59.66851
23567,59.66851
23600,59.66851
23633,59.66851
23667,59.66851
23700,59.66851
23733,57.32484
23767,57.32484
23800,57.32484
23833,57.32484
23867,58.37838000000001
23900,58.37838000000001
23933,58.06452
23967,58.06452
24000,58.06452
24033,58.06452
24067,58.06452
24100,58.06452
24133,58.06452
24167,58.06452
24200,58.06452
24233,58.06452
24267,58.06452
24300,58.06452
24333,58.06452
24367,58.06452
24400,58.06452
24433,58.06452
24467,58.06452
24500,58.06452
24533,58.44156
24567,58.44156
24600,58.44156
24633,58.44156
24667,58.44156
24700,58.44156
24733,58.44156
24767,58.44156
24800,58.44156
24833,59.34066
24867,59.34066
24900,59.34066
24933,59.34066
24967,59.34066
25000,59.34066
25033,59.34066
25067,59.34066
25100,59.34066
25133,59.34066
25167,59.34066
25200,59.34066
25233,59.34066
25267,59.34066
25300,59.34066
25333,59.34066
25367,59.34066
25400,59.34066
25433,59.34066
25467,59.34066
25500,59.34066
25533,59.34066
25567,59.34066
25600,60.40268
25633,60.40268
25667,60.40268
25700,60.40268
25733,60.40268
25767,60.40268
25800,60.40268
25833,60.40268
25867,60.0
25900,60.0
25933,60.0
25967,60.0
26000,60.0
26033,60.0
26067,60.0
26100,60.0
26133,60.0
26167,60.0
26200,60.0
26233,60.0
26267,60.0
26300,60.0
26333,60.0
26367,60.0
26400,60.0
26433,60.0
26467,60.0
26500,60.0
26533,60.0
26567,60.0
26600,60.0
26633,60.0
26667,60.0
26700,59.60265
26733,59.60265
26767,59.60265
26800,59.60265
26833,59.60265
26867,59.60265
26900,59.34066
26933,59.34066
26967,59.34066
27000,59.34066
27033,59.34066
27067,59.66851
27100,59.66851
27133,59.66851
27167,59.66851
27200,59.66851
27233,59.66851
27267,59.66851
27300,59.66851
27333,59.66851
27367,59.66851
27400,59.66851
27433,59.66851
27467,59.66851
27500,59.66851
27533,59.66851
27567,59.66851
27600,59.66851
27633,59.66851
27667,60.0
27700,61.71429000000001
27733,61.71429000000001
27767,61.71429000000001
27800,61.71429000000001
27833,61.71429000000001
27867,61.71429000000001
27900,61.71429000000001
27933,61.71429000000001
27967,61.71429000000001
28000,61.71429000000001
28033,61.71429000000001
28067,61.71429000000001
28100,61.71429000000001
28133,61.71429000000001
28167,61.71429000000001
28200,61.71429000000001
28233,61.71429000000001
28267,61.71429000000001
28300,61.71429000000001
28333,61.71429000000001
28367,61.71429000000001
28400,61.71429000000001
28433,61.71429000000001
28467,61.71429000000001
28500,62.06896999999999
28533,62.06896999999999
28567,62.06896999999999
28600,62.37624
28633,62.37624
28667,62.37624
28700,63.52941
28733,63.52941
28767,63.52941
28800,63.52941
28833,63.52941
28867,63.52941
28900,63.52941
28933,63.52941
28967,63.52941
29000,63.52941
29033,63.52941
29067,63.52941
29100,63.52941
29133,63.52941
29167,63.52941
29200,63.52941
29233,63.52941
29267,63.52941
29300,63.52941
29333,63.52941
29367,63.52941
29400,63.52941
29433,63.52941
29467,63.52941
29500,63.52941
29533,63.52941
29567,63.52941
29600,63.0
29633,63.0
29667,63.0
29700,63.0
29733,63.0
29767,63.15789
29800,62.7907
29833,62.7907
29867,62.7907
29900,62.7907
29933,62.7907
29967,62.7907
30000,62.7907
30033,62.7907
30067,62.7907
30100,62.7907
30133,62.7907
30167,62.7907
30200,62.7907
30233,62.7907
30267,62.7907
30300,62.7907
30333,62.7907
30367,62.7907
30400,62.7907
30433,62.7907
30467,62.7907
30500,62.7907
30533,62.7907
30567,62.7907
30600,62.7907
30633,62.7907
30667,62.7907
30700,61.76471
30733,62.5
30767,61.36364
30800,61.36364
30833,61.36364
30867,61.36364
30900,61.36364
30933,61.01695
30967,61.01695
31000,61.01695
31033,61.01695
31067,61.01695
31100,60.67416
31133,60.67416
31167,60.67416
31200,60.67416
31233,60.67416
31267,60.67416
31300,60.67416
31333,60.67416
31367,60.67416
31400,60.67416
31433,60.67416
31467,60.67416
31500,60.67416
31533,60.67416
31567,60.67416
31600,60.67416
31633,60.67416
31667,61.22449
31700,61.22449
31733,61.22449
31767,61.22449
31800,61.22449
31833,60.33519
31867,60.33519
31900,60.33519
31933,60.33519
31967,60.33519
32000,60.33519
32033,60.33519
32067,60.33519
32100,60.33519
32133,60.33519
32167,60.33519
32200,60.33519
32233,60.33519
32267,60.33519
32300,60.33519
32333,60.33519
32367,60.33519
32400,60.33519
32433,60.33519
32467,60.33519
32500,60.33519
32533,60.33519
32567,60.33519
32600,60.33519
32633,60.33519
32667,60.33519
32700,60.40268
32733,60.40268
32767,60.40268
32800,60.40268
32833,60.40268
32867,60.40268
32900,59.66851
32933,59.66851
32967,59.66851
33000,59.66851
33033,59.66851
33067,59.66851
33100,59.66851
33133,59.66851
33167,59.66851
33200,59.66851
33233,59.66851
33267,59.66851
33300,59.66851
33333,59.66851
33367,59.66851
33400,59.66851
33433,59.66851
33467,59.66851
33500,59.66851
33533,59.66851
33567,59.66851
33600,59.66851
33633,59.66851
33667,59.66851
33700,57.32484
33733,57.32484
33767,57.32484
33800,57.32484
33833,57.32484
33867,57.32484
33900,57.32484
33933,57.32484
33967,57.14286
34000,57.14286
34033,56.84211
34067,56.84211
34100,56.84211
34133,56.84211
34167,56.84211
34200,56.84211
34233,56.84211
34267,56.84211
34300,56.84211
34333,56.84211
34367,56.84211
34400,56.84211
34433,56.84211
34467,56.84211
34500,55.55556
34533,55.55556
34567,55.55556
34600,55.55556
34633,55.55556
34667,55.55556
34700,55.55556
34733,55.55556
34767,55.55556
34800,55.55556
34833,55.55556
34867,55.55556
34900,55.55556
34933,55.55556
34967,55.55556
35000,56.25
35033,56.25
35067,56.25
35100,56.25
35133,56.25
35167,56.25
35200,56.25
35233,56.25
35267,56.25
35300,56.25
35333,56.25
35367,56.25
35400,56.25
35433,55.55556
35467,55.55556
35500,55.55556
35533,55.55556
35567,55.55556
35600,55.55556
35633,55.55556
35667,55.55556
35700,55.55556
35733,55.55556
35767,55.55556
35800,55.55556
35833,55.55556
35867,55.55556
35900,55.55556
35933,55.55556
35967,55.55556
36000,55.55556
36033,55.95855
36067,55.95855
36100,55.95855
36133,55.95855
36167,55.95855
36200,55.95855
36233,55.95855
36267,55.95855
36300,55.95855
36333,55.95855
36367,55.95855
36400,55.95855
36433,56.60378000000001
36467,56.60378000000001
36500,56.60378000000001
36533,56.60378000000001
36567,56.60378000000001
36600,56.60378000000001
36633,56.60378000000001
36667,56.60378000000001
36700,56.60378000000001
36733,56.60378000000001
36767,56.60378000000001
36800,56.60378000000001
36833,56.60378000000001
36867,56.60378000000001
36900,56.60378000000001
36933,56.60378000000001
36967,56.60378000000001
37000,56.60378000000001
37033,56.60378000000001
37067,56.60378000000001
37100,56.5445
37133,56.60378000000001
37167,55.95855
37200,55.95855
37233,55.95855
37267,55.95855
37300,55.95855
37333,55.95855
37367,55.95855
37400,55.95855
37433,55.95855
37467,55.95855
37500,55.95855
37533,55.95855
37567,56.25
37600,56.25
37633,56.25
37667,56.25
37700,56.25
37733,56.25
37767,56.25
37800,56.25
37833,56.25
37867,56.25
37900,56.25
37933,56.25
37967,56.25
38000,56.25
38033,56.25
38067,56.25
38100,56.25
38133,56.25
38167,56.84211
38200,56.84211
38233,56.84211
38267,56.84211
38300,56.84211
38333,56.84211
38367,56.84211
38400,56.84211
38433,56.84211
38467,56.84211
38500,56.84211
38533,56.84211
38567,56.84211
38600,56.84211
38633,56.84211
38667,56.96202
38700,56.96202
38733,56.96202
38767,56.96202
38800,56.96202
38833,56.96202
38867,56.96202
38900,56.96202
38933,56.96202
38967,56.96202
39000,56.96202
39033,56.96202
39067,56.96202
39100,56.96202
39133,56.96202
39167,57.44681
39200,57.44681
39233,57.44681
39267,57.14286
39300,57.14286
39333,57.14286
39367,57.14286
39400,57.14286
39433,57.14286
39467,57.14286
39500,57.14286
39533,57.14286
39567,57.14286
39600,57.14286
39633,57.14286
39667,57.14286
39700,57.14286
39733,57.69231
39767,57.69231
39800,57.69231
39833,57.69231
39867,57.69231
39900,57.69231
39933,57.69231
39967,57.69231
40000,57.69231
40033,57.69231
40067,57.69231
40100,57.69231
40133,57.69231
40167,57.69231
40200,57.69231
40233,57.69231
40267,57.44681
40300,57.44681
40333,57.44681
40367,57.44681
40400,57.44681
40433,57.44681
40467,57.44681
40500,57.44681
40533,57.44681
40567,57.44681
40600,57.44681
40633,57.44681
40667,57.44681
40700,57.44681
40733,57.44681
40767,57.44681
40800,57.44681
40833,56.96202
40867,56.96202
40900,56.96202
40933,56.96202
40967,56.96202
41000,56.96202
41033,56.96202
41067,56.96202
41100,56.96202
41133,56.96202
41167,56.96202
41200,56.96202
41233,56.96202
41267,56.96202
41300,56.96202
41333,56.84211
41367,56.84211
41400,56.84211
41433,56.84211
41467,56.84211
41500,56.84211
41533,56.84211
41567,56.84211
41600,56.84211
41633,56.84211
41667,56.84211
41700,56.84211
41733,56.84211
41767,56.84211
41800,56.84211
41833,56.60378000000001
41867,56.60378000000001
41900,56.60378000000001
41933,56.60378000000001
41967,56.60378000000001
42000,56.60378000000001
42033,56.60378000000001
42067,56.60378000000001
42100,56.60378000000001
42133,56.60378000000001
42167,56.60378000000001
42200,56.60378000000001
42233,56.60378000000001
42267,56.60378000000001
42300,56.60378000000001
42333,56.60378000000001
42367,56.60378000000001
42400,56.60378000000001
42433,56.60378000000001
42467,56.60378000000001
42500,55.95855
42533,55.95855
42567,55.95855
42600,55.95855
42633,55.95855
42667,55.95855
42700,55.95855
42733,55.95855
42767,55.95855
42800,55.95855
42833,55.95855
42867,56.60378000000001
42900,56.60378000000001
42933,56.60378000000001
42967,56.60378000000001
43000,56.60378000000001
43033,56.60378000000001
43067,56.60378000000001
43100,56.60378000000001
43133,56.60378000000001
43167,56.60378000000001
43200,56.60378000000001
43233,56.60378000000001
43267,56.60378000000001
43300,56.60378000000001
43333,56.60378000000001
43367,56.60378000000001
43400,56.60378000000001
43433,56.60378000000001
43467,57.14286
43500,57.14286
43533,57.14286
43567,57.14286
43600,57.14286
43633,57.14286
43667,57.14286
43700,57.14286
43733,57.14286
43767,57.14286
43800,57.14286
43833,57.14286
43867,57.14286
43900,57.14286
43933,57.14286
43967,57.14286
44000,56.60378000000001
44033,56.60378000000001
44067,56.60378000000001
44100,56.60378000000001
44133,56.60378000000001
44167,56.60378000000001
44200,56.60378000000001
44233,56.60378000000001
44267,56.60378000000001
44300,56.60378000000001
44333,56.60378000000001
44367,56.60378000000001
44400,56.60378000000001
44433,56.60378000000001
44467,56.60378000000001
44500,56.60378000000001
44533,56.5445
44567,56.5445
44600,56.5445
44633,56.5445
44667,56.5445
44700,56.5445
44733,56.5445
44767,56.5445
44800,56.5445
44833,56.5445
44867,56.5445
44900,56.5445
44933,56.5445
44967,56.5445
45000,56.25
45033,56.25
45067,56.25
45100,56.25
45133,56.25
45167,56.25
45200,56.25
45233,56.25
45267,56.25
45300,56.25
45333,56.25
45367,56.25
45400,56.25
45433,56.25
45467,56.25
45500,56.25
45533,56.25
45567,56.5445
45600,56.5445
45633,56.5445
45667,56.5445
45700,56.5445
45733,56.5445
45767,56.5445
45800,56.5445
45833,56.5445
45867,56.5445
45900,56.5445
45933,56.5445
45967,56.5445
46000,56.5445
46033,56.60378000000001
46067,56.60378000000001
46100,56.60378000000001
46133,56.60378000000001
46167,56.60378000000001
46200,56.60378000000001
46233,56.60378000000001
46267,56.60378000000001
46300,56.60378000000001
46333,56.60378000000001
46367,56.60378000000001
46400,56.60378000000001
46433,56.60378000000001
46467,56.60378000000001
46500,56.60378000000001
46533,56.60378000000001
46567,57.14286
46600,57.14286
46633,57.14286
46667,57.14286
46700,57.14286
46733,57.14286
46767,57.14286
46800,57.14286
46833,57.14286
46867,57.14286
46900,57.14286
46933,57.14286
46967,57.14286
47000,57.14286
47033,57.14286
47067,57.14286
47100,57.32484
47133,57.32484
47167,57.32484
47200,57.32484
47233,57.32484
47267,57.32484
47300,57.32484
47333,57.32484
47367,57.32484
47400,57.32484
47433,57.32484
47467,57.32484
47500,57.32484
47533,57.32484
47567,57.32484
47600,57.32484
47633,57.14286
47667,57.14286
47700,57.14286
47733,57.14286
47767,57.14286
47800,57.14286
47833,57.14286
47867,57.14286
47900,57.14286
47933,57.14286
47967,57.14286
48000,56.84211
48033,56.84211
48067,56.84211
48100,56.84211
48133,56.84211
48167,57.69231
48200,57.69231
48233,57.69231
48267,57.69231
48300,57.69231
48333,57.69231
48367,57.69231
48400,57.69231
48433,57.69231
48467,57.69231
48500,57.69231
48533,57.69231
48567,57.69231
48600,58.06452
48633,58.06452
48667,58.06452
48700,58.06452
48733,58.06452
48767,58.06452
48800,58.06452
48833,58.06452
48867,58.06452
48900,58.06452
48933,58.06452
48967,58.06452
49000,58.06452
49033,58.06452
49067,58.06452
49100,58.06452
49133,58.06452
49167,58.06452
49200,58.06452
49233,58.06452
49267,58.06452
49300,57.69231
49333,57.69231
49367,57.69231
49400,57.69231
49433,57.69231
49467,57.69231
49500,57.69231
49533,57.69231
49567,57.69231
49600,57.69231
49633,57.69231
49667,57.69231
49700,57.75401
49733,57.75401
49767,57.75401
49800,57.75401
49833,57.75401
49867,57.75401
49900,57.75401
49933,57.75401
49967,57.75401
50000,57.75401
50033,57.75401
50067,57.75401
50100,57.75401
50133,57.75401
50167,57.75401
50200,57.75401
50233,57.75401
50267,57.75401
50300,58.06452
50333,58.06452
50367,58.06452
50400,58.06452
50433,58.06452
50467,58.06452
50500,58.06452
50533,58.06452
50567,58.06452
50600,58.06452
50633,58.06452
50667,58.06452
50700,58.06452
50733,58.06452
50767,58.06452
50800,58.06452
50833,57.14286
50867,57.14286
50900,57.14286
50933,57.14286
50967,57.14286
51000,57.14286
51033,57.14286
51067,57.14286
51100,57.14286
51133,57.14286
51167,57.14286
51200,57.14286
51233,57.14286
51267,57.14286
51300,57.14286
51333,57.14286
51367,56.96202
51400,56.96202
51433,56.96202
51467,56.96202
51500,56.96202
51533,56.96202
51567,56.96202
51600,56.96202
51633,56.96202
51667,56.96202
51700,56.60378000000001
51733,56.60378000000001
51767,56.60378000000001
51800,56.60378000000001
51833,56.60378000000001
51867,56.60378000000001
51900,56.5445
51933,56.5445
51967,56.5445
52000,56.5445
52033,56.5445
52067,56.5445
52100,56.5445
52133,56.5445
52167,56.5445
52200,56.5445
52233,56.5445
52267,56.5445
52300,56.5445
52333,56.5445
52367,56.25
52400,56.25
52433,56.25
52467,56.25
52500,56.25
52533,56.25
52567,56.25
52600,56.25
52633,56.25
52667,56.25
52700,56.25
52733,56.25
52767,56.25
52800,56.25
52833,56.25
52867,56.25
52900,56.25
52933,56.5445
52967,56.5445
53000,56.5445
53033,56.5445
53067,56.5445
53100,56.5445
53133,56.5445
53167,56.5445
53200,56.5445
53233,56.5445
53267,56.5445
53300,56.5445
53333,56.5445
53367,56.5445
53400,56.60378000000001
53433,56.60378000000001
53467,56.60378000000001
53500,56.60378000000001
53533,56.60378000000001
53567,56.60378000000001
53600,56.60378000000001
53633,56.60378000000001
53667,56.60378000000001
53700,56.60378000000001
53733,56.60378000000001
53767,56.60378000000001
53800,56.60378000000001
53833,56.60378000000001
53867,56.60378000000001
53900,56.60378000000001
53933,56.60378000000001
53967,56.84211
54000,56.84211
54033,56.84211
54067,56.84211
54100,56.84211
54133,56.84211
54167,56.84211
54200,56.84211
54233,56.84211
54267,56.84211
54300,56.84211
54333,56.84211
54367,56.84211
54400,56.84211
54433,56.84211
54467,56.60378000000001
54500,56.60378000000001
54533,56.60378000000001
54567,56.60378000000001
54600,56.60378000000001
54633,56.60378000000001
54667,56.60378000000001
54700,56.60378000000001
54733,56.60378000000001
54767,56.60378000000001
54800,56.60378000000001
54833,56.60378000000001
54867,56.60378000000001
54900,56.60378000000001
54933,56.60378000000001
54967,56.60378000000001
55000,56.84211
55033,56.84211
55067,56.84211
55100,56.84211
55133,56.84211
55167,56.84211
55200,56.84211
55233,56.84211
55267,56.84211
55300,56.84211
55333,56.84211
55367,56.84211
55400,56.84211
55433,56.84211
55467,56.84211
55500,56.60378000000001
55533,56.60378000000001
55567,56.60378000000001
55600,56.60378000000001
55633,56.60378000000001
55667,56.60378000000001
55700,56.60378000000001
55733,56.60378000000001
55767,56.60378000000001
55800,56.60378000000001
55833,56.60378000000001
55867,56.60378000000001
55900,56.60378000000001
55933,56.60378000000001
55967,56.60378000000001
56000,56.60378000000001
56033,56.84211
56067,56.5445
56100,56.5445
56133,56.5445
56167,56.5445
56200,56.5445
56233,56.5445
56267,56.5445
56300,56.5445
56333,56.5445
56367,56.5445
56400,56.5445
56433,56.5445
56467,56.5445
56500,56.5445
56533,57.32484
56567,57.32484
56600,57.32484
56633,57.32484
56667,57.32484
56700,57.32484
56733,57.32484
56767,57.32484
56800,57.32484
56833,57.32484
56867,57.32484
56900,57.32484
56933,57.32484
56967,57.32484
57000,57.32484
57033,57.32484
57067,57.32484
57100,57.32484
57133,57.32484
57167,56.84211
57200,56.84211
57233,56.84211
57267,56.84211
57300,56.84211
57333,56.84211
57367,56.84211
57400,56.84211
57433,56.84211
57467,56.84211
57500,56.84211
57533,56.84211
57567,56.84211
57600,56.84211
57633,56.84211
57667,56.96202
57700,56.96202
57733,56.96202
57767,56.96202
57800,56.96202
57833,56.96202
57867,56.96202
57900,56.96202
57933,56.96202
57967,56.96202
58000,56.96202
58033,56.96202
58067,56.96202
58100,56.96202
58133,56.96202
58167,56.96202
58200,56.96202
58233,56.84211
58267,56.84211
58300,56.84211
58333,56.84211
58367,56.84211
58400,56.84211
58433,56.84211
58467,56.84211
58500,56.84211
58533,56.84211
58567,56.84211
58600,56.84211
58633,56.84211
58667,56.84211
58700,56.84211
58733,56.60378000000001
58767,56.60378000000001
58800,56.60378000000001
58833,56.60378000000001
58867,56.60378000000001
58900,56.60378000000001
58933,56.60378000000001
58967,56.60378000000001
59000,56.60378000000001
59033,56.60378000000001
59067,56.60378000000001
59100,56.60378000000001
59133,56.60378000000001
59167,56.60378000000001
59200,56.60378000000001
59233,56.60378000000001
59267,56.60378000000001
59300,56.60378000000001
59333,56.60378000000001
59367,55.95855
59400,55.95855
59433,55.95855
59467,55.95855
59500,55.95855
59533,55.95855
59567,55.95855
59600,55.95855
59633,55.95855
59667,55.95855
59700,55.95855
59733,55.95855
59767,55.55556
59800,55.55556
59833,55.55556
59867,55.55556
59900,55.55556
59933,55.55556
59967,55.55556
60000,55.55556
60033,55.55556
60067,55.55556
60100,55.55556
60133,55.55556
60167,55.55556
60200,55.55556
60233,55.55556
60267,55.55556
60300,55.55556
60333,55.55556
60367,56.25
60400,56.25
60433,56.25
60467,56.25
60500,56.25
60533,56.25
60567,56.25
60600,56.25
60633,56.25
60667,56.25
60700,56.25
60733,56.25
60767,56.25
60800,55.90062
60833,55.90062
60867,55.90062
60900,55.90062
60933,55.90062
60967,55.90062
61000,55.90062
61033,55.90062
61067,55.90062
61100,55.90062
61133,55.90062
61167,55.90062
61200,55.90062
61233,55.90062
61267,55.90062
61300,55.90062
61333,55.90062
61367,55.90062
61400,56.25
61433,56.25
61467,56.25
61500,56.25
61533,56.25
61567,56.25
61600,56.25
61633,56.25
61667,56.25
61700,56.25
61733,56.25
61767,55.95855
61800,55.95855
61833,56.25
61867,56.25
61900,56.25
61933,56.25
61967,56.25
62000,56.25
62033,56.25
62067,56.25
62100,56.25
62133,56.25
62167,56.25
62200,56.25
62233,56.25
62267,56.25
62300,56.25
62333,56.25
62367,56.25
62400,56.25
62433,56.25
62467,56.25
62500,55.90062
62533,55.6701
62567,55.6701
62600,55.6701
62633,55.6701
62667,55.6701
62700,55.6701
62733,55.6701
62767,55.95855
62800,56.25
62833,56.25
62867,56.25
62900,56.25
62933,56.25
62967,56.25
63000,56.25
63033,56.25
63067,56.25
63100,56.25
63133,56.25
63167,56.25
63200,56.25
63233,56.25
63267,56.25
63300,56.25
63333,56.25
63367,56.25
63400,56.25
63433,56.25
63467,56.25
63500,58.69565
63533,58.69565
63567,58.69565
63600,58.69565
63633,58.69565
63667,58.69565
63700,58.69565
63733,58.69565
63767,58.69565
63800,58.69565
63833,58.69565
63867,58.69565
63900,58.69565
63933,58.69565
63967,58.69565
64000,59.21053000000001
64033,59.21053000000001
64067,61.71429000000001
64100,61.71429000000001
64133,61.71429000000001
64167,61.71429000000001
64200,61.71429000000001
64233,61.71429000000001
64267,61.71429000000001
64300,61.71429000000001
64333,61.71429000000001
64367,61.71429000000001
64400,61.71429000000001
64433,61.71429000000001
64467,61.71429000000001
64500,61.71429000000001
64533,61.71429000000001
64567,61.71429000000001
64600,61.71429000000001
64633,61.71429000000001
64667,61.71429000000001
64700,61.71429000000001
64733,61.71429000000001
64767,61.71429000000001
64800,61.71429000000001
64833,63.63636
64867,62.06896999999999
64900,63.0
64933,63.0
64967,63.0
65000,63.31658
65033,63.31658
65067,65.45454000000001
65100,65.45454000000001
65133,65.45454000000001
65167,65.45454000000001
65200,65.45454000000001
65233,65.45454000000001
65267,65.45454000000001
65300,65.45454000000001
65333,65.45454000000001
65367,65.45454000000001
65400,65.45454000000001
65433,65.45454000000001
65467,65.45454000000001
65500,65.45454000000001
65533,65.45454000000001
65567,65.45454000000001
65600,65.45454000000001
65633,65.45454000000001
65667,65.45454000000001
65700,65.45454000000001
65733,65.45454000000001
65767,65.45454000000001
65800,65.45454000000001
65833,64.94846
65867,64.94846
65900,64.94846
65933,64.94846
65967,64.94846
66000,64.94846
66033,64.94846
66067,64.94846
66100,64.94846
66133,64.94846
66167,64.94846
66200,65.85365999999999
66233,65.85365999999999
66267,65.85365999999999
66300,65.85365999999999
66333,65.85365999999999
66367,65.85365999999999
66400,65.85365999999999
66433,65.85365999999999
66467,65.85365999999999
66500,65.85365999999999
66533,65.85365999999999
66567,65.85365999999999
66600,65.85365999999999
66633,65.85365999999999
66667,65.85365999999999
66700,65.85365999999999
66733,65.85365999999999
66767,65.85365999999999
66800,65.85365999999999
66833,64.94846
66867,64.94846
66900,64.94846
66933,64.94846
66967,64.94846
67000,64.94846
67033,64.94846
67067,64.94846
67100,64.94846
67133,64.94846
67167,64.94846
67200,66.66666
67233,66.66666
67267,66.66666
67300,66.66666
67333,66.66666
67367,66.66666
67400,66.66666
67433,66.66666
67467,66.66666
67500,66.66666
67533,66.66666
67567,66.66666
67600,66.66666
67633,66.66666
67667,66.66666
67700,66.66666
67733,66.66666
67767,66.66666
67800,66.66666
67833,66.66666
67867,65.28497
67900,65.28497
67933,65.28497
67967,65.28497
68000,65.28497
68033,65.28497
68067,65.28497
68100,65.28497
68133,65.28497
68167,65.28497
68200,65.28497
68233,65.28497
68267,67.08074
68300,67.08074
68333,67.08074
68367,67.08074
68400,67.08074
68433,67.08074
68467,67.08074
68500,67.08074
68533,67.08074
68567,67.08074
68600,67.08074
68633,67.08074
68667,67.08074
68700,67.08074
68733,67.08074
68767,67.08074
68800,67.08074
68833,67.08074
68867,67.08074
68900,67.08074
68933,65.28497
68967,65.28497
69000,65.28497
69033,65.28497
69067,65.28497
69100,65.28497
69133,65.28497
69167,65.28497
69200,65.28497
69233,65.28497
69267,65.28497
69300,65.28497
69333,63.905330000000006
69367,63.905330000000006
69400,63.905330000000006
69433,63.905330000000006
69467,63.905330000000006
69500,63.905330000000006
69533,63.905330000000006
69567,63.905330000000006
69600,63.905330000000006
69633,63.905330000000006
69667,63.905330000000006
69700,63.905330000000006
69733,63.905330000000006
69767,63.905330000000006
69800,63.905330000000006
69833,63.905330000000006
69867,63.905330000000006
69900,63.63636
69933,63.63636
69967,63.63636
70000,63.63636
70033,63.63636
70067,63.63636
70100,63.63636
70133,61.36364
70167,61.36364
70200,61.36364
70233,61.36364
70267,61.36364
70300,61.36364
70333,61.36364
70367,61.36364
70400,61.36364
70433,61.36364
70467,61.36364
70500,61.36364
70533,61.36364
70567,61.36364
70600,61.36364
70633,61.36364
70667,61.36364
70700,61.36364
70733,61.36364
70767,61.36364
70800,61.36364
70833,61.36364
70867,59.60265
70900,59.66851
70933,60.0
70967,60.0
71000,60.0
71033,60.0
71067,60.0
71100,60.0
71133,60.0
71167,60.0
71200,60.0
71233,60.0
71267,60.0
71300,60.0
71333,60.0
71367,60.0
71400,60.0
71433,60.0
71467,60.0
71500,60.0
71533,60.0
71567,60.0
71600,60.0
71633,60.0
71667,60.0
71700,59.60265
71733,59.60265
71767,59.60265
71800,59.60265
71833,59.60265
71867,59.66851
71900,59.66851
71933,59.66851
71967,59.66851
72000,59.66851
72033,59.66851
72067,59.66851
72100,59.66851
72133,59.66851
72167,59.66851
72200,59.66851
72233,59.66851
72267,59.66851
72300,59.66851
72333,59.66851
72367,59.66851
72400,59.66851
72433,59.66851
72467,59.66851
72500,59.66851
72533,59.66851
72567,59.66851
72600,59.66851
72633,59.66851
72667,59.60265
72700,59.60265
72733,59.60265
72767,59.60265
72800,59.60265
72833,59.60265
72867,59.66851
72900,59.66851
72933,59.66851
72967,59.66851
73000,59.66851
73033,59.66851
73067,59.66851
73100,59.66851
73133,59.66851
73167,59.66851
73200,59.66851
73233,59.66851
73267,59.66851
73300,59.66851
73333,59.66851
73367,59.66851
73400,59.66851
73433,59.66851
73467,59.66851
73500,59.66851
73533,59.66851
73567,59.66851
73600,59.66851
73633,59.66851
73667,60.0
73700,60.0
73733,60.0
73767,60.0
73800,60.67416
73833,60.67416
73867,60.67416
73900,60.67416
73933,60.67416
73967,60.67416
74000,60.67416
74033,60.67416
74067,60.67416
74100,60.67416
74133,60.67416
74167,60.67416
74200,60.67416
74233,60.67416
74267,60.67416
74300,60.67416
74333,60.67416
74367,60.67416
74400,60.67416
74433,60.67416
74467,60.67416
74500,60.67416
74533,60.67416
74567,60.67416
74600,60.67416
74633,60.67416
74667,60.67416
74700,61.64384
74733,61.64384
74767,61.64384
74800,61.64384
74833,61.01695
74867,61.01695
74900,61.01695
74933,61.01695
74967,61.01695
75000,61.01695
75033,61.01695
75067,61.01695
75100,61.01695
75133,61.01695
75167,61.01695
75200,61.01695
75233,61.01695
75267,61.01695
75300,61.01695
75333,61.01695
75367,61.01695
75400,61.01695
75433,61.01695
75467,61.01695
75500,61.01695
75533,61.01695
75567,61.01695
75600,61.01695
75633,61.01695
75667,61.01695
75700,61.01695
75733,61.01695
75767,61.36364
75800,61.36364
75833,61.36364
75867,61.36364
75900,61.36364
75933,61.36364
75967,61.36364
76000,61.36364
76033,61.36364
76067,61.36364
76100,61.36364
76133,61.36364
76167,61.36364
76200,61.36364
76233,61.36364
76267,61.36364
76300,61.36364
76333,61.36364
76367,61.36364
76400,61.36364
76433,61.36364
76467,61.36364
76500,61.36364
76533,61.36364
76567,61.36364
76600,61.36364
76633,61.36364
76667,62.06896999999999
76700,62.06896999999999
76733,62.06896999999999
76767,62.06896999999999
76800,62.06896999999999
76833,62.06896999999999
76867,62.06896999999999
76900,62.06896999999999
76933,62.06896999999999
76967,62.06896999999999
77000,62.06896999999999
77033,61.71429000000001
77067,61.71429000000001
77100,61.71429000000001
77133,61.71429000000001
77167,61.71429000000001
77200,61.71429000000001
77233,61.71429000000001
77267,61.71429000000001
77300,61.71429000000001
77333,61.71429000000001
77367,61.71429000000001
77400,61.71429000000001
77433,61.71429000000001
77467,61.71429000000001
77500,61.71429000000001
77533,61.71429000000001
77567,61.71429000000001
77600,61.71429000000001
77633,61.71429000000001
77667,61.71429000000001
77700,62.06896999999999
77733,62.06896999999999
77767,62.06896999999999
77800,60.67416
77833,60.67416
77867,60.67416
77900,60.67416
77933,60.67416
77967,60.67416
78000,60.67416
78033,60.67416
78067,60.67416
78100,60.67416
78133,60.67416
78167,60.67416
78200,60.67416
78233,60.67416
78267,60.67416
78300,60.67416
78333,60.67416
78367,60.67416
78400,60.67416
78433,60.67416
78467,60.67416
78500,60.67416
78533,60.67416
78567,60.67416
78600,60.67416
78633,60.67416
78667,60.67416
78700,60.81081
78733,60.81081
78767,61.01695
78800,60.67416
78833,60.67416
78867,60.67416
78900,60.67416
78933,60.67416
78967,60.67416
79000,60.67416
79033,60.67416
79067,60.67416
79100,60.67416
79133,60.67416
79167,60.67416
79200,60.67416
79233,60.67416
79267,60.67416
79300,60.67416
79333,60.67416
79367,60.67416
79400,60.67416
79433,60.67416
79467,60.67416
79500,60.67416
79533,60.67416
79567,60.67416
79600,60.67416
79633,60.67416
79667,60.67416
79700,60.0
79733,60.67416
79767,60.67416
79800,60.67416
79833,60.67416
79867,60.67416
79900,60.67416
79933,60.67416
79967,60.67416
80000,60.67416
80033,60.67416
80067,60.67416
80100,60.67416
80133,60.67416
80167,60.67416
80200,60.67416
80233,60.67416
80267,60.67416
80300,60.67416
80333,60.67416
80367,60.67416
80400,60.67416
80433,60.67416
80467,60.67416
80500,60.67416
80533,60.67416
80567,60.67416
80600,60.67416
80633,61.22449
80667,61.22449
80700,61.36364
80733,61.36364
80767,61.36364
80800,61.36364
80833,61.36364
80867,61.36364
80900,61.36364
80933,61.36364
80967,61.01695
81000,61.01695
81033,61.01695
81067,61.01695
81100,61.01695
81133,61.01695
81167,61.01695
81200,61.01695
81233,61.01695
81267,61.01695
81300,61.01695
81333,61.01695
81367,61.01695
81400,61.01695
81433,61.01695
81467,61.01695
81500,61.01695
81533,61.01695
81567,61.01695
81600,61.36364
81633,61.36364
81667,60.81081
81700,60.81081
81733,60.81081
81767,60.81081
81800,60.0
81833,60.0
81867,60.0
81900,60.0
81933,60.0
81967,60.0
82000,60.0
82033,60.0
82067,60.0
82100,60.0
82133,60.0
82167,60.0
82200,60.0
82233,60.0
82267,60.0
82300,60.0
82333,60.0
82367,60.0
82400,60.0
82433,60.0
82467,60.0
82500,60.0
82533,60.0
82567,60.0
82600,59.21053000000001
82633,59.21053000000001
82667,59.21053000000001
82700,59.21053000000001
82733,59.21053000000001
82767,59.34066
82800,59.34066
82833,59.34066
82867,59.34066
82900,59.34066
82933,59.34066
82967,59.34066
83000,59.34066
83033,59.34066
83067,59.34066
83100,59.34066
83133,59.34066
83167,59.01639
83200,59.01639
83233,59.01639
83267,59.01639
83300,59.01639
83333,59.01639
83367,59.01639
83400,59.01639
83433,59.01639
83467,59.01639
83500,60.40268
83533,60.40268
83567,60.40268
83600,60.40268
83633,60.40268
83667,60.40268
83700,60.40268
83733,60.40268
83767,60.40268
83800,60.40268
83833,60.40268
83867,59.34066
83900,59.34066
83933,59.34066
83967,59.34066
84000,59.34066
84033,59.34066
84067,59.34066
84100,59.34066
84133,59.34066
84167,59.34066
84200,59.34066
84233,59.34066
84267,59.34066
84300,59.34066
84333,59.34066
84367,59.66851
84400,59.66851
84433,59.66851
84467,59.66851
84500,59.66851
84533,59.66851
84567,59.66851
84600,59.66851
84633,59.60265
84667,59.60265
84700,59.60265
84733,59.60265
84767,60.33519
84800,60.33519
84833,60.33519
84867,60.33519
84900,60.33519
84933,60.33519
84967,60.33519
85000,60.33519
85033,60.33519
85067,60.33519
85100,60.33519
85133,60.33519
85167,60.33519
85200,60.33519
85233,60.33519
85267,60.33519
85300,60.33519
85333,60.33519
85367,60.33519
85400,60.33519
85433,60.33519
85467,60.33519
85500,60.33519
85533,60.33519
85567,60.33519
85600,60.33519
85633,59.60265
85667,59.60265
85700,60.33519
85733,60.33519
85767,60.33519
85800,60.33519
85833,60.67416
85867,60.67416
85900,60.67416
85933,60.67416
85967,60.67416
86000,60.67416
86033,60.67416
86067,60.67416
86100,60.67416
86133,60.67416
86167,60.67416
86200,60.67416
86233,60.67416
86267,60.67416
86300,60.67416
86333,60.67416
86367,60.67416
86400,60.67416
86433,60.67416
86467,60.67416
86500,60.67416
86533,61.76471
86567,61.71429000000001
86600,61.71429000000001
86633,61.71429000000001
86667,61.71429000000001
86700,61.71429000000001
86733,61.71429000000001
86767,61.71429000000001
86800,61.71429000000001
86833,61.71429000000001
86867,61.71429000000001
86900,61.71429000000001
86933,61.71429000000001
86967,61.71429000000001
87000,61.71429000000001
87033,61.71429000000001
87067,61.71429000000001
87100,61.71429000000001
87133,61.71429000000001
87167,61.71429000000001
87200,61.71429000000001
87233,61.71429000000001
87267,61.71429000000001
87300,61.71429000000001
87333,61.71429000000001
87367,61.71429000000001
87400,62.68657
87433,62.68657
87467,62.68657
87500,62.68657
87533,63.905330000000006
87567,63.905330000000006
87600,63.905330000000006
87633,63.905330000000006
87667,63.52941
87700,63.52941
87733,63.52941
87767,63.52941
87800,63.52941
87833,63.52941
87867,63.52941
87900,63.52941
87933,63.52941
87967,63.52941
88000,63.52941
88033,63.52941
88067,63.52941
88100,63.52941
88133,63.52941
88167,63.52941
88200,63.52941
88233,63.52941
88267,63.52941
88300,63.52941
88333,63.52941
88367,63.52941
88400,63.52941
88433,63.52941
88467,63.52941
88500,63.52941
88533,62.06896999999999
88567,62.06896999999999
88600,62.42775
88633,62.42775
88667,62.42775
88700,62.42775
88733,62.42775
88767,62.42775
88800,62.42775
88833,62.42775
88867,62.42775
88900,62.42775
88933,62.42775
88967,62.42775
89000,62.42775
89033,62.42775
89067,62.42775
89100,62.42775
89133,62.42775
89167,62.42775
89200,62.42775
89233,62.42775
89267,62.42775
89300,62.42775
89333,62.42775
89367,62.42775
89400,62.42775
89433,63.0
89467,63.0
89500,63.0
89533,63.0
89567,63.0
89600,64.28571
89633,64.28571
89667,64.28571
89700,64.28571
89733,64.28571
89767,64.28571
89800,64.28571
89833,64.28571
89867,64.28571
89900,64.28571
89933,64.28571
89967,64.28571
90000,64.28571
90033,64.28571
90067,64.28571
90100,64.28571
90133,64.28571
90167,64.28571
90200,64.28571
90233,64.28571
90267,64.28571
90300,64.28571
90333,64.28571
90367,64.28571
90400,64.61539
90433,64.61539
90467,64.28571
90500,64.28571
90533,64.28571
90567,64.28571
90600,64.28571
90633,64.28571
90667,64.28571
90700,64.28571
90733,64.28571
90767,64.28571
90800,64.28571
90833,64.28571
90867,64.28571
90900,64.28571
90933,64.28571
90967,64.28571
91000,64.67066
91033,64.67066
91067,64.67066
91100,64.67066
91133,64.67066
91167,64.67066
91200,64.67066
91233,64.67066
91267,64.67066
91300,64.67066
91333,63.95939
91367,63.95939
91400,63.95939
91433,63.95939
91467,63.95939
91500,63.95939
91533,63.95939
91567,63.95939
91600,63.52941
91633,63.52941
91667,63.52941
91700,63.52941
91733,63.52941
91767,63.52941
91800,63.52941
91833,63.52941
91867,63.52941
91900,63.52941
91933,63.52941
91967,63.52941
92000,63.52941
92033,63.52941
92067,63.52941
92100,63.52941
92133,63.52941
92167,63.52941
92200,63.52941
92233,63.52941
92267,63.52941
92300,63.31658
92333,63.0
92367,63.0
92400,63.0
92433,63.0
92467,63.0
92500,62.06896999999999
92533,62.06896999999999
92567,62.06896999999999
92600,62.06896999999999
92633,62.06896999999999
92667,62.06896999999999
92700,62.06896999999999
92733,62.06896999999999
92767,62.06896999999999
92800,62.06896999999999
92833,62.06896999999999
92867,62.06896999999999
92900,62.06896999999999
92933,62.42775
92967,62.42775
93000,62.42775
93033,62.42775
93067,62.42775
93100,62.42775
93133,62.42775
93167,62.42775
93200,63.0
93233,63.0
93267,63.0
93300,63.0
93333,63.0
93367,62.42775
93400,62.42775
93433,62.42775
93467,62.42775
93500,62.42775
93533,62.42775
93567,62.42775
93600,62.42775
93633,62.42775
93667,62.42775
93700,62.42775
93733,62.42775
93767,62.42775
93800,62.42775
93833,62.42775
93867,62.42775
93900,62.42775
93933,62.06896999999999
93967,62.06896999999999
94000,62.06896999999999
94033,62.06896999999999
94067,62.06896999999999
94100,62.68657
94133,62.68657
94167,62.68657
94200,62.68657
94233,64.28571
94267,64.28571
94300,64.28571
94333,64.28571
94367,64.28571
94400,64.28571
94433,64.28571
94467,64.28571
94500,64.28571
94533,64.28571
94567,64.28571
94600,64.28571
94633,64.28571
94667,64.28571
94700,64.28571
94733,64.28571
94767,64.28571
94800,64.28571
94833,64.28571
94867,64.28571
94900,64.28571
94933,64.28571
94967,64.28571
95000,64.28571
95033,64.28571
95067,64.28571
95100,64.28571
95133,64.28571
95167,64.28571
95200,64.28571
95233,64.28571
95267,64.28571
95300,64.28571
95333,64.28571
95367,64.28571
95400,64.28571
95433,64.28571
95467,64.28571
95500,64.28571
95533,64.28571
95567,64.28571
95600,64.28571
95633,64.28571
95667,64.28571
95700,64.28571
95733,64.28571
95767,64.28571
95800,64.28571
95833,64.28571
95867,64.28571
95900,64.94846
95933,64.94846
95967,64.94846
96000,64.94846
96033,64.94846
96067,64.94846
96100,64.94846
96133,64.94846
96167,64.94846
96200,64.94846
96233,64.94846
96267,64.67066
96300,64.67066
96333,64.67066
96367,64.67066
96400,64.67066
96433,64.67066
96467,64.67066
96500,64.67066
96533,64.67066
96567,64.67066
96600,64.67066
96633,64.67066
96667,64.67066
96700,64.67066
96733,64.67066
96767,64.67066
96800,64.67066
96833,64.61539
96867,64.61539
96900,64.61539
96933,64.61539
96967,64.61539
97000,64.61539
97033,64.61539
97067,64.61539
97100,64.61539
97133,64.61539
97167,65.45454000000001
97200,65.45454000000001
97233,65.45454000000001
97267,65.45454000000001
97300,65.45454000000001
97333,65.45454000000001
97367,65.45454000000001
97400,65.45454000000001
97433,65.45454000000001
97467,65.45454000000001
97500,65.45454000000001
97533,65.45454000000001
97567,65.45454000000001
97600,65.45454000000001
97633,65.45454000000001
97667,65.45454000000001
97700,65.45454000000001
97733,65.625
97767,65.625
97800,65.28497
97833,65.28497
97867,65.28497
97900,65.28497
97933,65.28497
97967,65.28497
98000,65.28497
98033,65.28497
98067,65.28497
98100,65.28497
98133,65.28497
98167,65.85365999999999
98200,65.85365999999999
98233,65.85365999999999
98267,65.85365999999999
98300,65.85365999999999
98333,65.85365999999999
98367,65.85365999999999
98400,65.85365999999999
98433,65.85365999999999
98467,65.85365999999999
98500,65.85365999999999
98533,65.85365999999999
98567,65.85365999999999
98600,65.85365999999999
98633,65.85365999999999
98667,65.85365999999999
98700,65.85365999999999
98733,65.85365999999999
98767,64.94846
98800,64.94846
98833,64.94846
98867,64.94846
98900,64.94846
98933,64.94846
98967,64.94846
99000,64.94846
99033,64.94846
99067,64.94846
99100,64.94846
99133,64.67066
99167,64.67066
99200,64.67066
99233,64.67066
99267,64.67066
99300,64.67066
99333,64.67066
99367,64.67066
99400,64.67066
99433,64.67066
99467,64.67066
99500,64.67066
99533,64.67066
99567,64.67066
99600,64.67066
99633,64.67066
99667,64.67066
99700,64.67066
99733,64.28571
99767,64.28571
99800,64.28571
99833,64.28571
99867,64.28571
99900,64.28571
99933,64.28571
99967,64.28571
100000,64.28571
100033,63.905330000000006
100067,63.905330000000006
100100,63.905330000000006
100133,63.905330000000006
100167,63.905330000000006
100200,63.905330000000006
100233,63.905330000000006
100267,63.905330000000006
100300,63.905330000000006
100333,63.905330000000006
100367,63.905330000000006
100400,63.905330000000006
100433,63.905330000000006
100467,63.905330000000006
100500,63.905330000000006
100533,63.905330000000006
100567,63.905330000000006
100600,63.905330000000006
100633,63.905330000000006
100667,63.905330000000006
100700,63.905330000000006
100733,63.905330000000006
100767,63.0
100800,63.0
100833,63.0
100867,63.0
100900,63.0
100933,62.7907
100967,62.7907
101000,62.7907
101033,62.7907
101067,62.7907
101100,62.7907
101133,62.7907
101167,62.7907
101200,62.7907
101233,62.7907
101267,62.7907
101300,62.7907
101333,62.7907
101367,62.7907
101400,62.7907
101433,62.7907
101467,62.7907
101500,62.7907
101533,62.7907
101567,62.7907
101600,62.7907
101633,62.7907
101667,62.7907
101700,62.7907
101733,62.68657
101767,62.68657
101800,62.68657
101833,62.68657
101867,61.71429000000001
101900,61.71429000000001
101933,61.71429000000001
101967,61.71429000000001
102000,61.71429000000001
102033,61.71429000000001
102067,61.71429000000001
102100,61.71429000000001
102133,61.71429000000001
102167,61.71429000000001
102200,61.71429000000001
102233,61.71429000000001
102267,61.71429000000001
102300,61.71429000000001
102333,61.71429000000001
102367,61.71429000000001
102400,61.71429000000001
102433,61.71429000000001
102467,61.71429000000001
102500,61.71429000000001
102533,61.71429000000001
102567,61.71429000000001
102600,61.71429000000001
102633,61.71429000000001
102667,61.71429000000001
102700,61.76471
102733,61.36364
102767,61.36364
102800,61.36364
102833,61.36364
102867,61.36364
102900,61.36364
102933,61.36364
102967,61.36364
103000,61.36364
103033,61.36364
103067,61.36364
103100,61.36364
103133,61.36364
103167,61.36364
103200,61.36364
103233,61.36364
103267,61.36364
103300,61.36364
103333,61.36364
103367,61.36364
103400,61.36364
103433,61.36364
103467,61.36364
103500,61.36364
103533,61.36364
103567,61.36364
103600,61.36364
103633,61.36364
103667,60.81081
103700,60.81081
103733,60.81081
103767,60.81081
103800,59.66851
103833,59.66851
103867,59.66851
103900,59.66851
103933,59.66851
103967,59.66851
104000,59.66851
104033,59.66851
104067,59.66851
104100,59.66851
104133,59.66851
104167,59.66851
104200,59.66851
104233,59.66851
104267,59.66851
104300,59.66851
104333,59.66851
104367,59.66851
104400,59.66851
104433,59.66851
104467,59.66851
104500,59.66851
104533,59.66851
104567,59.66851
104600,59.60265
104633,59.60265
104667,59.60265
104700,59.60265
104733,59.60265
104767,60.0
104800,60.0
104833,60.0
104867,60.0
104900,60.0
104933,60.0
104967,60.0
105000,60.0
105033,60.0
105067,60.0
105100,60.0
105133,60.0
105167,60.0
105200,60.0
105233,60.0
105267,60.0
105300,60.0
105333,60.0
105367,60.0
105400,60.0
105433,60.0
105467,60.0
105500,60.0
105533,60.0
105567,60.0
105600,61.36364
105633,61.36364
105667,61.36364
105700,61.36364
105733,61.36364
105767,61.36364
105800,61.36364
105833,61.36364
105867,61.36364
105900,61.36364
105933,61.36364
105967,61.36364
106000,61.36364
106033,61.36364
106067,61.36364
106100,61.36364
106133,61.36364
106167,61.36364
106200,61.36364
106233,61.36364
106267,61.36364
106300,61.36364
106333,61.36364
106367,61.36364
106400,61.36364
106433,61.36364
106467,61.36364
106500,61.36364
106533,61.76471
106567,62.42775
106600,62.42775
106633,62.42775
106667,62.42775
106700,62.42775
106733,62.42775
106767,62.42775
106800,62.42775
106833,62.42775
106867,62.42775
106900,62.42775
106933,62.42775
106967,62.42775
107000,62.42775
107033,62.42775
107067,62.42775
107100,62.42775
107133,62.42775
107167,62.42775
107200,62.42775
107233,62.42775
107267,62.42775
107300,62.42775
107333,62.42775
107367,62.42775
107400,62.42775
107433,62.42775
107467,62.68657
107500,63.0
107533,63.0
107567,63.0
107600,63.15789
107633,63.15789
107667,63.15789
107700,63.15789
107733,63.15789
107767,63.15789
107800,63.15789
107833,63.15789
107867,63.15789
107900,63.15789
107933,63.15789
107967,63.15789
108000,63.15789
108033,63.15789
108067,63.15789
108100,63.15789
108133,63.15789
108167,63.15789
108200,64.94846
108233,64.94846
108267,64.94846
108300,64.94846
108333,64.94846
108367,64.94846
108400,64.94846
108433,64.94846
108467,64.94846
108500,64.94846
108533,64.94846
108567,65.45454000000001
108600,65.45454000000001
108633,65.45454000000001
108667,65.45454000000001
108700,65.45454000000001
108733,65.45454000000001
108767,65.45454000000001
108800,65.45454000000001
108833,65.85365999999999
108867,65.85365999999999
108900,65.85365999999999
108933,65.85365999999999
108967,65.85365999999999
109000,65.85365999999999
109033,65.85365999999999
109067,65.85365999999999
109100,65.625
109133,65.625
109167,65.625
109200,65.625
109233,65.625
109267,65.625
109300,65.625
109333,65.625
109367,65.625
109400,65.625
109433,65.625
109467,65.625
109500,65.625
109533,67.92453
109567,67.92453
109600,67.92453
109633,67.92453
109667,67.92453
109700,67.92453
109733,67.92453
109767,67.92453
109800,67.92453
109833,67.92453
109867,67.92453
109900,67.92453
109933,67.92453
109967,67.92453
110000,67.92453
110033,67.92453
110067,67.02128
110100,67.02128
110133,67.02128
110167,67.02128
110200,67.02128
110233,67.02128
110267,67.02128
110300,67.02128
110333,67.02128
110367,67.02128
110400,67.02128
110433,67.02128
110467,67.02128
110500,67.02128
110533,67.02128
110567,67.02128
110600,67.02128
110633,67.92453
110667,67.92453
110700,67.92453
110733,67.92453
110767,67.92453
110800,67.92453
110833,67.92453
110867,67.92453
110900,67.92453
110933,67.92453
110967,67.92453
111000,67.92453
111033,67.92453
111067,66.66666
111100,66.66666
111133,66.66666
111167,66.66666
111200,66.66666
111233,66.66666
111267,66.66666
111300,66.66666
111333,66.66666
111367,66.66666
111400,66.66666
111433,66.66666
111467,66.66666
111500,66.66666
111533,66.66666
111567,66.66666
111600,65.85365999999999
111633,65.85365999999999
111667,65.85365999999999
111700,65.85365999999999
111733,65.85365999999999
111767,65.85365999999999
111800,65.85365999999999
111833,65.85365999999999
111867,65.85365999999999
111900,65.85365999999999
111933,65.85365999999999
111967,65.96859
112000,65.96859
112033,65.96859
112067,65.96859
112100,65.96859
112133,65.96859
112167,65.96859
112200,65.96859
112233,65.96859
112267,65.96859
112300,65.96859
112333,65.96859
112367,65.96859
112400,65.96859
112433,66.25766999999999
112467,66.25766999999999
112500,66.25766999999999
112533,66.25766999999999
112567,66.25766999999999
112600,66.25766999999999
112633,66.25766999999999
112667,66.25766999999999
112700,66.25766999999999
112733,66.25766999999999
112767,67.74194
112800,67.74194
112833,67.74194
112867,67.74194
112900,67.74194
112933,67.74194
112967,67.74194
113000,67.74194
113033,67.74194
113067,67.74194
113100,67.74194
113133,67.74194
113167,67.74194
113200,67.74194
113233,67.74194
113267,67.74194
113300,67.74194
113333,67.74194
113367,67.92453
113400,67.92453
113433,67.92453
113467,67.92453
113500,67.92453
113533,67.92453
113567,68.47825999999999
113600,68.10811
113633,68.10811
113667,68.10811
113700,68.10811
113733,68.10811
113767,68.10811
113800,68.10811
113833,68.10811
113867,68.10811
113900,68.10811
113933,68.10811
113967,68.10811
114000,68.10811
114033,68.10811
114067,68.10811
114100,68.10811
114133,68.10811
114167,68.10811
114200,68.10811
114233,68.10811
114267,66.25766999999999
114300,66.66666
114333,66.66666
114367,66.66666
114400,66.66666
114433,67.02128
114467,67.02128
114500,67.02128
114533,67.02128
114567,67.02128
114600,67.02128
114633,67.02128
114667,67.02128
114700,67.02128
114733,67.02128
114767,67.02128
114800,67.02128
114833,67.02128
114867,67.02128
114900,67.02128
114933,67.02128
114967,67.02128
115000,67.5
115033,67.5
115067,67.5
115100,67.5
115133,67.5
115167,67.5
115200,67.5
115233,67.5
115267,67.5
115300,67.5
115333,67.37968000000001
115367,67.37968000000001
115400,67.37968000000001
115433,67.37968000000001
115467,67.37968000000001
115500,67.37968000000001
115533,67.37968000000001
115567,67.37968000000001
115600,67.37968000000001
115633,67.37968000000001
115667,67.37968000000001
115700,67.37968000000001
115733,67.37968000000001
115767,67.37968000000001
115800,67.37968000000001
115833,67.37968000000001
115867,67.37968000000001
115900,67.37968000000001
115933,68.35443000000001
115967,68.35443000000001
116000,68.35443000000001
116033,68.35443000000001
116067,68.35443000000001
116100,68.35443000000001
116133,68.35443000000001
116167,68.35443000000001
116200,68.35443000000001
116233,68.35443000000001
116267,68.35443000000001
116300,67.37968000000001
116333,67.37968000000001
116367,67.37968000000001
116400,67.37968000000001
116433,67.37968000000001
116467,67.37968000000001
116500,67.37968000000001
116533,67.37968000000001
116567,67.37968000000001
116600,67.37968000000001
116633,67.37968000000001
116667,67.37968000000001
116700,67.37968000000001
116733,67.37968000000001
116767,67.37968000000001
116800,67.37968000000001
116833,67.37968000000001
116867,67.37968000000001
116900,68.78981
116933,68.78981
116967,68.78981
117000,68.78981
117033,68.78981
117067,68.78981
117100,68.78981
117133,68.78981
117167,68.78981
117200,68.78981
117233,68.10811
117267,68.78981
117300,68.78981
117333,67.02128
117367,67.02128
117400,67.02128
117433,67.02128
117467,67.02128
117500,67.02128
117533,67.02128
117567,67.02128
117600,67.02128
117633,67.02128
117667,67.02128
117700,67.02128
117733,67.02128
117767,67.02128
117800,67.02128
117833,67.02128
117867,67.02128
117900,67.08074
117933,67.08074
117967,67.08074
118000,67.08074
118033,67.08074
118067,67.08074
118100,67.08074
118133,67.08074
118167,67.08074
118200,67.08074
118233,67.08074
118267,67.08074
118300,66.31579
118333,66.31579
118367,66.31579
118400,66.31579
118433,66.31579
118467,66.31579
118500,66.31579
118533,66.31579
118567,66.31579
118600,66.31579
118633,66.31579
118667,66.31579
118700,66.31579
118733,66.31579
118767,66.31579
118800,65.06024000000001
118833,65.06024000000001
118867,65.06024000000001
118900,65.06024000000001
118933,65.06024000000001
118967,65.06024000000001
119000,65.06024000000001
119033,65.06024000000001
119067,65.06024000000001
119100,65.06024000000001
119133,65.06024000000001
119167,65.06024000000001
119200,65.06024000000001
119233,65.06024000000001
119267,65.06024000000001
119300,64.28571
119333,64.28571
119367,64.28571
119400,64.28571
119433,64.28571
119467,64.28571
119500,64.28571
119533,64.28571
119567,64.28571
119600,62.7907
119633,62.7907
119667,62.42775
119700,62.42775
119733,62.42775
119767,62.42775
119800,62.42775
119833,62.42775
119867,62.42775
119900,62.42775
119933,62.42775
119967,62.42775
120000,62.42775
120033,62.42775
120067,62.42775
120100,62.42775
120133,62.42775
120167,62.42775
120200,63.31658
120233,63.31658
120267,63.31658
120300,63.31658
120333,63.31658
120367,63.31658
120400,62.42775
120433,62.42775
120467,62.42775
120500,62.42775
120533,62.42775
120567,62.42775
120600,62.42775
120633,62.42775
120667,62.42775
120700,62.42775
120733,62.42775
120767,62.42775
120800,62.42775
120833,62.42775
120867,62.42775
120900,62.42775
120933,64.61539
120967,62.42775
121000,62.42775
121033,62.42775
121067,63.31658
121100,63.31658
121133,63.31658
121167,63.31658
121200,63.31658
121233,63.31658
121267,62.7907
121300,62.7907
121333,62.7907
121367,62.7907
121400,62.7907
121433,62.7907
121467,62.7907
121500,62.7907
121533,62.7907
121567,62.7907
121600,62.7907
121633,62.7907
121667,62.7907
121700,62.7907
121733,62.7907
121767,62.7907
121800,62.7907
121833,62.7907
121867,62.7907
121900,62.7907
121933,63.63636
121967,63.63636
122000,63.63636
122033,63.63636
122067,63.63636
122100,63.63636
122133,63.63636
122167,63.905330000000006
122200,63.905330000000006
122233,63.905330000000006
122267,63.905330000000006
122300,63.905330000000006
122333,63.905330000000006
122367,63.905330000000006
122400,63.905330000000006
122433,63.905330000000006
122467,63.905330000000006
122500,63.905330000000006
122533,63.905330000000006
122567,63.905330000000006
122600,63.905330000000006
122633,63.905330000000006
122667,63.905330000000006
122700,63.905330000000006
122733,63.905330000000006
122767,63.905330000000006
122800,63.905330000000006
122833,64.61539
122867,64.61539
122900,64.61539
122933,64.61539
122967,64.61539
123000,64.61539
123033,64.61539
123067,64.61539
123100,64.61539
123133,65.85365999999999
123167,65.85365999999999
123200,65.85365999999999
123233,65.85365999999999
123267,65.85365999999999
123300,65.85365999999999
123333,65.85365999999999
123367,65.85365999999999
123400,65.85365999999999
123433,65.85365999999999
123467,65.85365999999999
123500,65.85365999999999
123533,65.85365999999999
123567,65.85365999999999
123600,65.85365999999999
123633,65.85365999999999
123667,65.85365999999999
123700,65.96859
123733,66.31579
123767,66.31579
123800,66.31579
123833,66.31579
123867,66.31579
123900,66.31579
123933,66.31579
123967,66.31579
124000,66.31579
124033,66.31579
124067,66.31579
124100,66.31579
124133,66.31579
124167,67.08074
124200,67.08074
124233,67.08074
124267,67.08074
124300,67.08074
124333,67.08074
124367,67.08074
124400,67.08074
124433,67.08074
124467,67.08074
124500,67.08074
124533,67.37968000000001
124567,67.37968000000001
124600,67.37968000000001
124633,67.37968000000001
124667,67.37968000000001
124700,67.37968000000001
124733,67.37968000000001
124767,67.37968000000001
124800,67.37968000000001
124833,67.37968000000001
124867,67.37968000000001
124900,67.37968000000001
124933,67.37968000000001
124967,67.37968000000001
125000,67.37968000000001
125033,67.37968000000001
125067,67.37968000000001
125100,67.37968000000001
125133,68.78981
125167,68.78981
125200,68.78981
125233,68.78981
125267,68.78981
125300,68.78981
125333,68.78981
125367,68.78981
125400,68.78981
125433,68.78981
125467,68.78981
125500,67.74194
125533,67.74194
125567,67.74194
125600,67.74194
125633,67.74194
125667,67.74194
125700,67.74194
125733,67.74194
125767,67.74194
125800,67.74194
125833,67.74194
125867,67.74194
125900,67.74194
125933,67.74194
125967,67.74194
126000,67.74194
126033,67.74194
126067,67.74194
126100,67.74194
126133,67.92453
126167,67.92453
126200,67.92453
126233,67.92453
126267,67.92453
126300,67.92453
126333,67.92453
126367,67.92453
126400,67.92453
126433,67.37968000000001
126467,67.37968000000001
126500,67.37968000000001
126533,67.37968000000001
126567,67.37968000000001
126600,67.37968000000001
126633,67.37968000000001
126667,67.37968000000001
126700,67.37968000000001
126733,67.37968000000001
126767,67.37968000000001
126800,67.37968000000001
126833,67.37968000000001
126867,67.37968000000001
126900,67.37968000000001
126933,67.37968000000001
126967,67.37968000000001
127000,67.37968000000001
127033,67.08074
127067,67.08074
127100,67.08074
127133,67.08074
127167,67.08074
127200,67.08074
127233,67.08074
127267,67.08074
127300,67.08074
127333,67.02128
127367,67.02128
127400,67.02128
127433,67.02128
127467,67.02128
127500,67.02128
127533,67.02128
127567,67.02128
127600,67.02128
127633,67.02128
127667,67.02128
127700,67.02128
127733,67.02128
127767,67.02128
127800,67.02128
127833,67.02128
127867,67.02128
127900,66.66666
127933,66.66666
127967,66.66666
128000,66.66666
128033,66.66666
128067,66.66666
128100,66.66666
128133,66.66666
128167,66.66666
128200,66.66666
128233,66.66666
128267,66.31579
128300,66.31579
128333,66.31579
128367,66.31579
128400,66.31579
128433,66.31579
128467,66.31579
128500,66.31579
128533,66.31579
128567,66.31579
128600,66.31579
128633,66.31579
128667,66.31579
128700,66.31579
128733,66.31579
128767,65.85365999999999
128800,65.85365999999999
128833,65.85365999999999
128867,65.85365999999999
128900,65.85365999999999
128933,65.85365999999999
128967,65.85365999999999
129000,65.85365999999999
129033,65.85365999999999
129067,65.85365999999999
129100,65.85365999999999
129133,65.85365999999999
129167,65.96859
129200,65.96859
129233,65.96859
129267,65.96859
129300,65.96859
129333,65.96859
129367,65.96859
129400,65.96859
129433,65.96859
129467,65.96859
129500,65.96859
129533,65.96859
129567,65.96859
129600,65.96859
129633,65.45454000000001
129667,65.45454000000001
129700,65.45454000000001
129733,65.45454000000001
129767,65.45454000000001
129800,65.45454000000001
129833,65.45454000000001
129867,65.45454000000001
129900,65.45454000000001
129933,65.45454000000001
129967,65.45454000000001
130000,65.45454000000001
130033,65.45454000000001
130067,65.45454000000001
130100,65.45454000000001
130133,64.94846
130167,64.94846
130200,64.94846
130233,64.94846
130267,64.94846
130300,64.94846
130333,64.94846
130367,64.94846
130400,64.94846
130433,64.94846
130467,64.94846
130500,64.28571
130533,64.28571
130567,64.28571
130600,64.28571
130633,64.28571
130667,64.28571
130700,64.28571
130733,64.28571
130767,64.28571
130800,64.28571
130833,64.28571
130867,64.28571
130900,64.28571
130933,64.28571
130967,64.28571
131000,64.28571
131033,64.28571
131067,64.28571
131100,63.95939
131133,63.95939
131167,63.95939
131200,63.95939
131233,63.95939
131267,63.95939
131300,63.95939
131333,63.95939
131367,64.28571
131400,64.28571
131433,64.28571
131467,64.28571
131500,64.28571
131533,64.28571
131567,64.28571
131600,64.28571
131633,64.28571
131667,64.28571
131700,64.28571
131733,64.28571
131767,64.28571
131800,64.28571
131833,64.28571
131867,64.28571
131900,64.28571
131933,64.28571
131967,64.28571
132000,64.28571
132033,64.28571
132067,63.95939
132100,63.95939
132133,63.95939
132167,63.95939
132200,63.95939
132233,63.95939
132267,63.95939
132300,63.95939
132333,63.905330000000006
132367,63.905330000000006
132400,63.905330000000006
132433,63.905330000000006
132467,63.905330000000006
132500,63.905330000000006
132533,63.905330000000006
132567,63.905330000000006
132600,63.905330000000006
132633,63.905330000000006
132667,63.905330000000006
132700,63.905330000000006
132733,63.905330000000006
132767,63.905330000000006
132800,63.905330000000006
132833,63.905330000000006
132867,63.905330000000006
132900,63.905330000000006
132933,63.905330000000006
132967,63.905330000000006
133000,63.905330000000006
133033,63.905330000000006
133067,63.31658
133100,63.31658
133133,63.31658
133167,63.31658
133200,63.0
133233,63.0
133267,62.42775
133300,62.42775
133333,62.42775
133367,62.42775
133400,62.42775
133433,62.42775
133467,62.42775
133500,62.42775
133533,62.42775
133567,62.42775
133600,62.42775
133633,62.42775
133667,62.42775
133700,62.42775
133733,62.42775
133767,62.42775
133800,62.42775
133833,62.42775
133867,62.42775
133900,62.42775
133933,62.42775
133967,62.42775
134000,62.42775
134033,62.42775
134067,62.37624
134100,62.37624
134133,62.37624
134167,62.06896999999999
134200,62.06896999999999
134233,62.06896999999999
134267,62.06896999999999
134300,62.06896999999999
134333,62.06896999999999
134367,62.06896999999999
134400,62.06896999999999
134433,62.06896999999999
134467,62.06896999999999
134500,62.06896999999999
134533,62.06896999999999
134567,62.06896999999999
134600,62.06896999999999
134633,62.06896999999999
134667,62.06896999999999
134700,62.06896999999999
134733,62.06896999999999
134767,62.06896999999999
134800,62.06896999999999
134833,62.06896999999999
134867,62.06896999999999
134900,62.06896999999999
134933,63.0
134967,63.0
135000,63.0
135033,63.0
135067,63.0
135100,62.42775
135133,62.42775
135167,62.42775
135200,62.42775
135233,62.42775
135267,62.42775
135300,62.42775
135333,62.42775
135367,62.42775
135400,62.42775
135433,62.42775
135467,62.42775
135500,62.42775
135533,62.42775
135567,62.42775
135600,62.42775
135633,62.42775
135667,62.42775
135700,62.42775
135733,62.42775
135767,62.42775
135800,62.42775
135833,62.42775
135867,62.68657
135900,62.68657
135933,62.68657
135967,62.68657
136000,62.42775
136033,62.42775
136067,62.42775
136100,62.42775
136133,62.42775
136167,62.42775
136200,62.42775
136233,62.42775
136267,62.42775
136300,62.42775
136333,62.42775
136367,62.42775
136400,62.42775
136433,62.7907
136467,62.7907
136500,62.7907
136533,62.7907
136567,62.7907
136600,62.7907
136633,62.7907
136667,62.7907
136700,62.7907
136733,62.7907
136767,62.7907
136800,62.7907
136833,62.68657
136867,62.68657
136900,62.68657
136933,62.68657
136967,62.7907
137000,62.7907
137033,62.7907
137067,62.7907
137100,62.7907
137133,62.7907
137167,62.7907
137200,62.7907
137233,62.7907
137267,62.7907
137300,62.7907
137333,62.7907
137367,62.7907
137400,62.7907
137433,62.7907
137467,62.7907
137500,62.7907
137533,62.7907
137567,62.7907
137600,62.7907
137633,62.7907
137667,62.7907
137700,63.63636
137733,63.63636
137767,63.63636
137800,63.63636
137833,63.63636
137867,63.63636
137900,63.63636
137933,63.905330000000006
137967,63.905330000000006
138000,63.905330000000006
138033,63.905330000000006
138067,63.905330000000006
138100,63.905330000000006
138133,63.905330000000006
138167,63.905330000000006
138200,63.905330000000006
138233,63.905330000000006
138267,63.905330000000006
138300,63.905330000000006
138333,64.28571
138367,64.28571
138400,64.28571
138433,64.28571
138467,64.28571
138500,64.28571
138533,64.94846
138567,64.94846
138600,64.94846
138633,64.94846
138667,64.94846
138700,64.94846
138733,64.94846
138767,64.94846
138800,64.94846
138833,64.94846
138867,64.94846
138900,65.85365999999999
138933,65.85365999999999
138967,65.85365999999999
139000,65.85365999999999
139033,65.85365999999999
139067,65.85365999999999
139100,65.85365999999999
139133,65.85365999999999
139167,65.85365999999999
139200,65.85365999999999
139233,65.85365999999999
139267,65.85365999999999
139300,65.85365999999999
139333,65.85365999999999
139367,65.85365999999999
139400,65.85365999999999
139433,65.85365999999999
139467,65.625
139500,65.625
139533,65.625
139567,65.625
139600,65.625
139633,65.625
139667,65.625
139700,65.625
139733,65.28497
139767,65.28497
139800,65.28497
139833,65.28497
139867,65.28497
139900,66.25766999999999
139933,66.25766999999999
139967,66.25766999999999
140000,66.25766999999999
140033,66.25766999999999
140067,66.25766999999999
140100,66.25766999999999
140133,66.25766999999999
140167,66.25766999999999
140200,66.25766999999999
140233,66.66666
140267,66.66666
140300,66.66666
140333,66.66666
140367,66.66666
140400,66.66666
140433,65.96859
140467,66.66666
140500,65.28497
140533,65.28497
140567,65.28497
140600,65.28497
140633,65.28497
140667,65.28497
140700,65.28497
140733,65.28497
140767,65.28497
140800,65.28497
140833,65.28497
140867,65.28497
140900,65.06024000000001
140933,65.06024000000001
140967,65.06024000000001
141000,65.06024000000001
141033,65.06024000000001
141067,65.06024000000001
141100,65.06024000000001
141133,65.06024000000001
141167,65.06024000000001
141200,65.06024000000001
141233,65.06024000000001
141267,65.06024000000001
141300,65.06024000000001
141333,65.06024000000001
141367,65.06024000000001
141400,64.94846
141433,64.94846
141467,64.94846
141500,64.94846
141533,64.94846
141567,64.94846
141600,64.94846
141633,64.94846
141667,64.94846
141700,64.94846
141733,64.94846
141767,65.45454000000001
141800,65.45454000000001
141833,65.45454000000001
141867,65.45454000000001
141900,65.45454000000001
141933,65.45454000000001
141967,65.45454000000001
142000,65.45454000000001
142033,65.45454000000001
142067,65.45454000000001
142100,65.45454000000001
142133,65.45454000000001
142167,65.45454000000001
142200,65.45454000000001
142233,65.45454000000001
142267,65.45454000000001
142300,65.45454000000001
142333,65.45454000000001
142367,65.45454000000001
142400,64.61539
142433,64.61539
142467,64.61539
142500,64.61539
142533,64.61539
142567,64.61539
142600,64.61539
142633,64.61539
142667,64.61539
142700,64.67066
142733,64.67066
142767,64.67066
142800,64.67066
142833,64.67066
142867,64.67066
142900,64.67066
142933,64.67066
142967,64.67066
143000,64.67066
143033,64.67066
143067,64.67066
143100,64.67066
143133,64.67066
143167,64.67066
143200,64.67066
143233,64.67066
143267,64.67066
143300,64.67066
143333,64.67066
143367,64.67066
143400,63.95939
143433,63.95939
143467,63.95939
143500,63.95939
143533,63.95939
143567,63.95939
143600,63.95939
143633,63.95939
143667,62.7907
143700,62.7907
143733,62.7907
143767,62.7907
143800,62.7907
143833,62.7907
143867,62.7907
143900,62.7907
143933,62.7907
143967,62.7907
144000,62.7907
144033,62.7907
144067,62.7907
144100,62.7907
144133,62.7907
144167,62.7907
144200,62.7907
144233,62.7907
144267,62.7907
144300,62.7907
144333,62.7907
144367,62.68657
144400,62.68657
144433,62.68657
144467,62.68657
144500,61.36364
144533,61.36364
144567,61.36364
144600,61.36364
144633,61.36364
144667,61.36364
144700,61.36364
144733,61.36364
144767,61.36364
144800,61.36364
144833,61.36364
144867,61.36364
144900,61.36364
144933,61.36364
144967,61.36364
145000,61.36364
145033,61.36364
145067,61.36364
145100,61.36364
145133,61.36364
145167,61.36364
145200,61.36364
145233,61.36364
145267,61.36364
145300,61.36364
145333,61.36364
145367,61.36364
145400,61.36364
145433,61.36364
145467,61.36364
145500,61.36364
145533,61.36364
145567,61.36364
145600,61.36364
145633,61.36364
145667,61.36364
145700,61.36364
145733,61.36364
145767,61.36364
145800,61.36364
145833,61.36364
145867,61.36364
145900,61.36364
145933,61.36364
145967,61.36364
146000,61.36364
146033,61.36364
146067,61.36364
146100,61.36364
146133,61.36364
146167,61.36364
146200,62.37624
146233,62.06896999999999
146267,62.06896999999999
146300,62.42775
146333,62.42775
146367,62.42775
146400,62.42775
146433,62.42775
146467,62.42775
146500,62.42775
146533,62.42775
146567,62.42775
146600,62.42775
146633,62.42775
146667,62.42775
146700,62.42775
146733,62.42775
146767,62.42775
146800,62.42775
146833,62.42775
146867,62.42775
146900,62.42775
146933,62.42775
146967,62.42775
147000,62.42775
147033,62.42775
147067,62.42775
147100,62.42775
147133,62.42775
147167,62.68657
147200,62.68657
147233,62.68657
147267,62.68657
147300,62.42775
147333,62.42775
147367,62.42775
147400,62.42775
147433,62.42775
147467,62.42775
147500,62.42775
147533,62.42775
147567,62.42775
147600,62.42775
147633,62.42775
147667,62.42775
147700,62.42775
147733,62.42775
147767,62.42775
147800,62.42775
147833,62.42775
147867,62.42775
147900,62.42775
147933,62.42775
147967,62.42775
148000,62.42775
148033,63.31658
148067,63.31658
148100,63.31658
148133,63.31658
148167,63.31658
148200,63.31658
148233,63.905330000000006
148267,63.905330000000006
148300,63.905330000000006
148333,63.905330000000006
148367,63.905330000000006
148400,63.905330000000006
148433,63.905330000000006
148467,63.905330000000006
148500,63.905330000000006
148533,63.905330000000006
148567,63.905330000000006
148600,63.905330000000006
148633,63.905330000000006
148667,63.905330000000006
148700,63.905330000000006
148733,63.905330000000006
148767,63.905330000000006
148800,63.905330000000006
148833,65.28497
148867,65.28497
148900,65.28497
148933,65.28497
148967,65.28497
149000,65.28497
149033,65.28497
149067,65.28497
149100,65.28497
149133,65.28497
149167,65.28497
149200,65.28497
149233,66.25766999999999
149267,66.25766999999999
149300,66.25766999999999
149333,66.25766999999999
149367,66.25766999999999
149400,66.25766999999999
149433,66.25766999999999
149467,66.25766999999999
149500,66.25766999999999
149533,66.25766999999999
149567,66.25766999999999
149600,66.25766999999999
149633,66.25766999999999
149667,66.25766999999999
149700,66.25766999999999
149733,66.25766999999999
149767,66.25766999999999
149800,66.25766999999999
149833,66.25766999999999
149867,64.94846
149900,64.94846
149933,64.94846
149967,64.94846
150000,64.94846
150033,64.94846
150067,64.94846
150100,64.94846
150133,64.94846
150167,64.94846
150200,64.94846
150233,65.06024000000001
150267,65.06024000000001
150300,65.06024000000001
150333,65.06024000000001
150367,65.06024000000001
150400,65.06024000000001
150433,65.06024000000001
150467,65.06024000000001
150500,65.06024000000001
150533,65.06024000000001
150567,65.06024000000001
150600,65.06024000000001
150633,65.06024000000001
150667,65.06024000000001
150700,65.06024000000001
150733,65.06024000000001
150767,65.06024000000001
150800,65.06024000000001
150833,65.06024000000001
150867,65.06024000000001
150900,65.06024000000001
150933,63.63636
150967,63.63636
151000,63.63636
151033,63.63636
151067,63.63636
151100,63.63636
151133,63.63636
151167,64.28571
151200,64.28571
151233,64.28571
151267,64.28571
151300,64.28571
151333,64.67066
151367,64.67066
151400,64.67066
151433,64.67066
151467,64.67066
151500,64.67066
151533,64.67066
151567,64.67066
151600,64.67066
151633,64.67066
151667,64.67066
151700,64.67066
151733,64.67066
151767,64.67066
151800,64.67066
151833,64.67066
151867,64.28571
151900,64.28571
151933,64.28571
151967,64.28571
152000,64.28571
152033,64.28571
152067,64.28571
152100,64.28571
152133,64.28571
152167,63.905330000000006
152200,63.905330000000006
152233,63.905330000000006
152267,63.905330000000006
152300,63.905330000000006
152333,63.905330000000006
152367,63.905330000000006
152400,63.905330000000006
152433,63.905330000000006
152467,63.905330000000006
152500,63.905330000000006
152533,63.905330000000006
152567,63.905330000000006
152600,63.905330000000006
152633,63.905330000000006
152667,63.905330000000006
152700,64.94846
152733,64.94846
152767,64.94846
152800,64.94846
152833,64.94846
152867,64.94846
152900,64.94846
152933,64.61539
152967,64.61539
153000,64.61539
153033,64.61539
153067,64.67066
153100,64.67066
153133,64.67066
153167,64.67066
153200,64.67066
153233,64.67066
153267,64.67066
153300,64.67066
153333,64.67066
153367,64.67066
153400,64.67066
153433,64.67066
153467,64.67066
153500,64.67066
153533,64.67066
153567,64.67066
153600,64.67066
153633,64.67066
153667,64.67066
153700,64.67066
153733,63.95939
153767,63.95939
153800,63.95939
153833,63.95939
153867,63.95939
153900,63.95939
153933,63.95939
153967,63.95939
154000,63.15789
154033,63.15789
154067,63.15789
154100,63.15789
154133,63.15789
154167,63.15789
154200,63.15789
154233,63.15789
154267,63.15789
154300,63.15789
154333,63.15789
154367,63.15789
154400,63.15789
154433,63.15789
154467,63.15789
154500,63.15789
154533,63.15789
154567,63.15789
154600,63.15789
154633,63.15789
154667,63.15789
154700,63.15789
154733,63.15789
154767,62.37624
154800,62.06896999999999
154833,62.06896999999999
154867,60.33519
154900,60.33519
154933,60.33519
154967,60.33519
155000,60.33519
155033,60.33519
155067,60.33519
155100,60.33519
155133,60.33519
155167,60.33519
155200,60.33519
155233,60.33519
155267,60.33519
155300,60.33519
155333,60.33519
155367,60.33519
155400,60.67416
155433,60.67416
155467,60.67416
155500,60.67416
155533,60.67416
155567,60.67416
155600,60.67416
155633,60.67416
155667,61.22449
155700,61.22449
155733,61.36364
155767,61.36364
155800,61.36364
155833,61.36364
155867,61.36364
155900,61.36364
155933,61.36364
155967,61.36364
156000,61.36364
156033,61.36364
156067,61.36364
156100,61.36364
156133,61.36364
156167,61.36364
156200,61.36364
156233,61.36364
156267,61.36364
156300,61.36364
156333,61.36364
156367,61.36364
156400,61.36364
156433,61.36364
156467,61.36364
156500,61.36364
156533,61.36364
156567,62.68657
156600,62.68657
156633,62.68657
156667,62.68657
156700,63.52941
156733,63.52941
156767,63.52941
156800,63.52941
156833,63.52941
156867,63.52941
156900,63.52941
156933,63.52941
156967,63.52941
157000,63.52941
157033,63.52941
157067,63.52941
157100,63.52941
157133,63.52941
157167,63.52941
157200,63.52941
157233,63.52941
157267,63.52941
157300,63.52941
157333,63.52941
157367,63.52941
157400,64.61539
157433,64.61539
157467,64.61539
157500,64.61539
157533,64.61539
157567,64.61539
157600,64.61539
157633,64.61539
157667,64.61539
157700,64.61539
157733,65.06024000000001
157767,65.06024000000001
157800,65.06024000000001
157833,65.06024000000001
157867,65.06024000000001
157900,65.06024000000001
157933,65.06024000000001
157967,65.06024000000001
158000,65.06024000000001
158033,65.06024000000001
158067,65.06024000000001
158100,65.06024000000001
158133,65.06024000000001
158167,65.06024000000001
158200,65.06024000000001
158233,65.96859
158267,65.96859
158300,65.96859
158333,65.96859
158367,65.96859
158400,65.96859
158433,65.96859
158467,65.96859
158500,65.96859
158533,65.96859
158567,65.96859
158600,65.96859
158633,65.96859
158667,65.96859
158700,65.06024000000001
158733,65.06024000000001
158767,65.06024000000001
158800,65.06024000000001
158833,65.06024000000001
158867,65.06024000000001
158900,65.06024000000001
158933,65.06024000000001
158967,65.06024000000001
159000,65.06024000000001
159033,65.06024000000001
159067,65.06024000000001
159100,65.625
159133,65.625
159167,65.96859
159200,65.96859
159233,65.96859
159267,65.96859
159300,65.96859
159333,65.96859
159367,65.96859
159400,65.96859
159433,65.96859
159467,65.96859
159500,65.96859
159533,67.5
159567,67.5
159600,67.5
159633,67.5
159667,67.5
159700,67.5
159733,67.5
159767,67.5
159800,67.5
159833,67.5
159867,67.5
159900,67.5
159933,69.23076999999999
159967,69.23076999999999
160000,69.23076999999999
160033,69.23076999999999
160067,69.23076999999999
160100,69.23076999999999
160133,69.23076999999999
160167,69.23076999999999
160200,69.23076999999999
160233,69.23076999999999
160267,69.23076999999999
160300,69.23076999999999
160333,69.23076999999999
160367,69.61326
160400,69.61326
160433,69.61326
160467,69.61326
160500,69.61326
160533,69.61326
160567,72.48321999999997
160600,72.4138
160633,72.4138
160667,72.4138
160700,72.4138
160733,72.4138
160767,72.4138
160800,72.4138
160833,72.4138
160867,72.4138
160900,72.4138
160933,72.4138
160967,72.4138
161000,72.4138
161033,72.4138
161067,72.4138
161100,72.4138
161133,72.4138
161167,72.4138
161200,72.4138
161233,72.4138
161267,72.4138
161300,72.4138
161333,72.4138
161367,72.4138
161400,72.4138
161433,72.4138
161467,72.0
161500,72.0
161533,72.0
161567,72.0
161600,72.0
161633,73.25581
161667,73.25581
161700,73.25581
161733,73.25581
161767,73.25581
161800,73.25581
161833,73.25581
161867,73.25581
161900,73.25581
161933,73.25581
161967,73.25581
162000,73.25581
162033,73.25581
162067,73.25581
162100,73.25581
162133,73.25581
162167,73.25581
162200,73.25581
162233,73.25581
162267,73.25581
162300,73.25581
162333,73.25581
162367,72.36180999999998
162400,73.25581
162433,71.64179
162467,71.64179
162500,71.64179
162533,71.64179
162567,71.59091
162600,71.59091
162633,71.59091
162667,71.59091
162700,72.0
162733,72.0
162767,72.0
162800,72.0
162833,72.0
162867,72.0
162900,72.0
162933,72.0
162967,72.0
163000,72.0
163033,72.0
163067,72.0
163100,72.0
163133,72.0
163167,72.4138
163200,72.4138
163233,72.4138
163267,72.4138
163300,71.28713
163333,71.28713
163367,71.28713
163400,71.18644
163433,71.18644
163467,71.18644
163500,71.18644
163533,71.18644
163567,71.18644
163600,71.18644
163633,71.18644
163667,71.18644
163700,71.18644
163733,71.18644
163767,71.18644
163800,71.18644
163833,71.18644
163867,71.18644
163900,71.18644
163933,71.18644
163967,71.18644
164000,71.18644
164033,71.18644
164067,71.18644
164100,71.18644
164133,71.18644
164167,71.18644
164200,71.18644
164233,71.05264
164267,69.61326
164300,69.61326
164333,69.61326
164367,69.61326
164400,69.61326
164433,69.61326
164467,69.61326
164500,69.61326
164533,69.61326
164567,69.61326
164600,69.61326
164633,69.61326
164667,69.61326
164700,69.61326
164733,69.61326
164767,69.61326
164800,69.61326
164833,69.61326
164867,69.61326
164900,69.61326
164933,69.61326
164967,69.61326
165000,69.61326
165033,69.61326
165067,69.23076999999999
165100,69.23076999999999
165133,69.23076999999999
165167,69.23076999999999
165200,69.23076999999999
165233,68.10811
165267,68.10811
165300,67.74194
165333,67.74194
165367,67.74194
165400,67.74194
165433,67.74194
165467,67.74194
165500,67.74194
165533,67.74194
165567,67.74194
165600,67.74194
165633,67.74194
165667,67.74194
165700,67.74194
165733,67.74194
165767,67.74194
165800,67.74194
165833,67.74194
165867,67.74194
165900,65.45454000000001
165933,65.45454000000001
165967,65.45454000000001
166000,65.45454000000001
166033,65.45454000000001
166067,65.45454000000001
166100,65.45454000000001
166133,65.96859
166167,65.96859
166200,65.96859
166233,65.96859
166267,65.96859
166300,65.96859
166333,65.96859
166367,65.96859
166400,65.96859
166433,65.96859
166467,65.96859
166500,65.96859
166533,65.96859
166567,65.96859
166600,66.31579
166633,65.06024000000001
166667,65.06024000000001
166700,65.06024000000001
166733,64.67066
166767,64.67066
166800,64.67066
166833,64.67066
166867,64.67066
166900,64.67066
166933,64.67066
166967,64.67066
167000,64.67066
167033,64.67066
167067,64.94846
167100,64.94846
167133,64.94846
167167,64.94846
167200,64.94846
167233,64.94846
167267,64.94846
167300,64.94846
167333,64.94846
167367,64.94846
167400,64.94846
167433,64.28571
167467,64.28571
167500,64.28571
167533,64.28571
167567,64.28571
167600,64.28571
167633,64.28571
167667,64.28571
167700,64.28571
167733,64.28571
167767,64.28571
167800,64.28571
167833,64.28571
167867,64.28571
167900,64.28571
167933,64.28571
167967,64.28571
168000,64.28571
168033,64.28571
168067,64.28571
168100,64.28571
168133,63.0
168167,63.0
168200,63.0
168233,63.0
168267,63.0
168300,63.15789
168333,63.15789
168367,63.15789
168400,63.15789
168433,63.15789
168467,63.15789
168500,63.15789
168533,63.15789
168567,63.15789
168600,63.15789
168633,63.15789
168667,63.15789
168700,63.15789
168733,63.15789
168767,63.15789
168800,63.15789
168833,63.15789
168867,63.15789
168900,63.15789
168933,63.15789
168967,63.15789
169000,63.15789
169033,63.15789
169067,63.31658
169100,63.31658
169133,63.31658
169167,63.31658
169200,63.31658
169233,63.31658
169267,62.42775
169300,62.42775
169333,62.7907
169367,62.7907
169400,62.7907
169433,62.7907
169467,62.7907
169500,62.7907
169533,62.7907
169567,62.7907
169600,62.7907
169633,62.7907
169667,62.7907
169700,62.7907
169733,62.7907
169767,62.7907
169800,62.7907
169833,62.7907
169867,62.7907
169900,62.7907
169933,62.7907
169967,62.7907
170000,62.68657
170033,62.68657
170067,62.68657
170100,62.37624
170133,62.7907
170167,62.7907
170200,62.7907
170233,62.7907
170267,62.7907
170300,62.7907
170333,62.7907
170367,62.7907
170400,62.7907
170433,62.7907
170467,62.7907
170500,62.7907
170533,62.7907
170567,62.7907
170600,62.7907
170633,62.7907
170667,62.7907
170700,62.7907
170733,62.7907
170767,62.7907
170800,62.7907
170833,62.7907
170867,62.7907
170900,63.31658
170933,63.31658
170967,63.31658
171000,63.31658
171033,63.31658
171067,63.31658
171100,63.905330000000006
171133,63.905330000000006
171167,63.905330000000006
171200,63.905330000000006
171233,63.905330000000006
171267,63.905330000000006
171300,63.905330000000006
171333,63.905330000000006
171367,63.905330000000006
171400,63.905330000000006
171433,63.905330000000006
171467,63.905330000000006
171500,63.905330000000006
171533,63.905330000000006
171567,63.905330000000006
171600,63.905330000000006
171633,63.905330000000006
171667,63.905330000000006
171700,63.905330000000006
171733,63.905330000000006
171767,63.905330000000006
171800,63.905330000000006
171833,63.905330000000006
171867,63.63636
171900,63.63636
171933,63.63636
171967,63.63636
172000,63.63636
172033,63.63636
172067,63.63636
172100,63.15789
172133,63.15789
172167,63.15789
172200,63.15789
172233,63.15789
172267,63.15789
172300,63.15789
172333,63.15789
172367,63.15789
172400,63.15789
172433,63.15789
172467,63.15789
172500,63.15789
172533,63.15789
172567,63.15789
172600,63.15789
172633,63.15789
172667,63.15789
172700,63.15789
172733,63.15789
172767,63.15789
172800,63.15789
172833,63.15789
172867,63.15789
172900,63.15789
172933,62.06896999999999
172967,62.06896999999999
173000,61.71429000000001
173033,61.71429000000001
173067,61.71429000000001
173100,61.71429000000001
173133,61.71429000000001
173167,61.71429000000001
173200,61.71429000000001
173233,61.71429000000001
173267,61.71429000000001
173300,61.71429000000001
173333,61.71429000000001
173367,61.71429000000001
173400,61.71429000000001
173433,61.71429000000001
173467,61.71429000000001
173500,61.71429000000001
173533,61.71429000000001
173567,61.71429000000001
173600,61.71429000000001
173633,61.71429000000001
173667,61.71429000000001
173700,61.71429000000001
173733,61.71429000000001
173767,61.71429000000001
173800,61.71429000000001
173833,61.71429000000001
173867,61.71429000000001
173900,61.76471
173933,62.06896999999999
173967,62.06896999999999
174000,62.06896999999999
174033,62.06896999999999
174067,62.06896999999999
174100,62.06896999999999
174133,61.71429000000001
174167,61.71429000000001
174200,61.71429000000001
174233,61.71429000000001
174267,61.71429000000001
174300,61.71429000000001
174333,61.71429000000001
174367,61.71429000000001
174400,61.71429000000001
174433,61.71429000000001
174467,61.71429000000001
174500,61.71429000000001
174533,61.71429000000001
174567,61.71429000000001
174600,61.71429000000001
174633,61.71429000000001
174667,61.71429000000001
174700,61.71429000000001
174733,61.71429000000001
174767,61.71429000000001
174800,61.71429000000001
174833,61.71429000000001
174867,61.71429000000001
174900,61.71429000000001
174933,61.01695
174967,61.01695
175000,61.01695
175033,61.01695
175067,61.01695
175100,61.01695
175133,61.01695
175167,61.01695
175200,61.01695
175233,61.01695
175267,61.01695
175300,61.01695
175333,61.01695
175367,61.01695
175400,61.01695
175433,61.01695
175467,61.01695
175500,61.01695
175533,61.01695
175567,61.01695
175600,61.01695
175633,61.01695
175667,61.01695
175700,61.01695
175733,61.01695
175767,61.01695
175800,61.01695
175833,61.01695
175867,60.81081
175900,61.01695
175933,61.01695
175967,61.01695
176000,61.01695
176033,61.01695
176067,61.01695
176100,61.01695
176133,61.01695
176167,61.01695
176200,61.01695
176233,61.01695
176267,61.01695
176300,61.01695
176333,61.01695
176367,61.01695
176400,61.01695
176433,61.01695
176467,61.01695
176500,61.01695
176533,61.01695
176567,61.01695
176600,61.01695
176633,61.01695
176667,61.01695
176700,61.01695
176733,61.01695
176767,61.01695
176800,61.01695
176833,60.67416
176867,60.67416
176900,60.67416
176933,60.67416
176967,60.67416
177000,60.67416
177033,60.67416
177067,60.67416
177100,60.67416
177133,60.67416
177167,60.67416
177200,60.67416
177233,60.67416
177267,60.67416
177300,60.67416
177333,60.67416
177367,60.67416
177400,60.67416
177433,60.67416
177467,60.67416
177500,60.67416
177533,60.67416
177567,60.67416
177600,60.67416
177633,60.67416
177667,60.67416
177700,60.67416
177733,61.36364
177767,61.36364
177800,61.36364
177833,61.36364
177867,61.36364
177900,61.36364
177933,61.36364
177967,61.36364
178000,61.36364
178033,61.36364
178067,61.36364
178100,61.36364
178133,61.36364
178167,61.36364
178200,61.36364
178233,61.36364
178267,61.36364
178300,61.36364
178333,61.36364
178367,61.36364
178400,61.36364
178433,61.36364
178467,61.36364
178500,61.36364
178533,61.36364
178567,61.36364
178600,61.36364
178633,61.36364
178667,61.36364
178700,62.5
178733,62.5
178767,61.71429000000001
178800,61.71429000000001
178833,61.71429000000001
178867,61.71429000000001
178900,61.71429000000001
178933,61.71429000000001
178967,61.71429000000001
179000,61.71429000000001
179033,61.71429000000001
179067,61.71429000000001
179100,61.71429000000001
179133,61.71429000000001
179167,61.71429000000001
179200,61.71429000000001
179233,61.71429000000001
179267,61.71429000000001
179300,61.71429000000001
179333,61.71429000000001
179367,61.71429000000001
179400,61.71429000000001
179433,61.71429000000001
179467,61.71429000000001
179500,61.71429000000001
179533,61.71429000000001
179567,61.71429000000001
179600,61.71429000000001
179633,61.71429000000001
179667,61.71429000000001
179700,61.71429000000001
179733,61.71429000000001
179767,61.36364
179800,61.36364
179833,61.36364
179867,61.36364
179900,61.36364
179933,61.36364
179967,61.36364
180000,61.36364
180033,61.36364
180067,61.36364
180100,61.36364
180133,61.36364
180167,61.36364
180200,61.36364
180233,61.36364
180267,61.36364
180300,61.36364
180333,61.36364
180367,61.36364
180400,61.36364
180433,61.36364
180467,61.36364
180500,61.36364
180533,61.36364
180567,61.36364
180600,61.36364
180633,61.36364
180667,61.36364
180700,61.76471
180733,62.06896999999999
180767,62.06896999999999
180800,62.06896999999999
180833,62.06896999999999
180867,62.06896999999999
180900,62.06896999999999
180933,62.06896999999999
180967,62.06896999999999
181000,62.06896999999999
181033,62.06896999999999
181067,62.42775
181100,62.42775
181133,62.42775
181167,62.42775
181200,62.42775
181233,62.42775
181267,62.42775
181300,62.42775
181333,62.42775
181367,62.42775
181400,62.42775
181433,62.42775
181467,62.42775
181500,62.42775
181533,62.42775
181567,62.42775
181600,62.42775
181633,62.68657
181666,62.68657
181700,62.68657
181733,62.68657
181766,62.68657
181800,62.68657
181833,62.68657
181866,62.68657
181900,62.68657
181933,62.68657
181966,62.68657
182000,62.68657
182033,62.68657
182066,62.68657
182100,62.68657
182133,62.68657
182166,62.68657
182200,62.68657
182233,62.68657
182266,62.68657
182300,62.68657
182333,62.68657
182366,62.68657
182400,62.68657
182433,62.68657
182466,62.68657
182500,62.68657
182533,62.68657
182566,62.68657
182600,62.68657
182633,62.68657
182666,62.68657
182700,62.68657
182733,62.68657
182766,62.68657
182800,62.68657
182833,62.68657
182866,62.68657
182900,62.68657
182933,62.68657
182966,62.68657
183000,62.68657
183033,62.68657
183066,62.68657
183100,62.68657
183133,62.68657
183166,62.68657
183200,62.68657
183233,62.68657
183266,62.68657
183300,62.68657
183333,62.68657
183366,62.68657
183400,62.68657
183433,62.68657
183466,62.68657
183500,62.68657
183533,62.68657
183566,62.68657
183600,62.68657
183633,62.68657
183666,62.68657
183700,62.68657
183733,62.68657
183766,62.68657
183800,62.68657
183833,62.68657
183866,62.68657
183900,62.68657
183933,62.68657
183966,62.68657
184000,62.68657
184033,62.68657
184066,62.68657
184100,62.68657
184133,62.68657
184166,62.68657
184200,62.68657
184233,62.68657
184266,62.68657
184300,62.68657
184333,62.68657
184366,62.68657
184400,62.68657
184433,62.68657
184466,62.68657
184500,62.68657
184533,62.68657
184566,62.68657
184600,62.68657
184633,62.68657
184666,62.68657
184700,62.68657
184733,62.68657
184766,62.68657
184800,62.68657
184833,62.68657
184866,62.68657
184900,62.68657
184933,62.68657
184966,62.68657
185000,62.68657
185033,62.68657
185066,62.68657
185100,62.68657
185133,62.68657
185166,62.68657
185200,62.68657
185233,62.68657
185266,62.68657
185300,62.68657
185333,62.68657
185366,62.68657
185400,62.68657
185433,62.68657
185466,62.68657
185500,62.68657
185533,62.68657
185566,62.68657
185600,62.68657
185633,62.68657
185666,62.68657
185700,62.68657
185733,62.68657
185766,62.68657
185800,62.68657
185833,62.68657
185866,62.68657
185900,62.68657
185933,62.68657
185966,62.68657
186000,62.68657
186033,62.68657
186066,62.68657
186100,62.68657
186133,62.68657
186166,62.68657
186200,62.68657
186233,62.68657
186266,62.68657
186300,62.68657
186333,62.68657
186366,62.68657
186400,62.68657
186433,62.68657
186466,62.68657
186500,62.68657
186533,62.68657
186566,62.68657
186600,62.68657
186633,62.68657
186666,62.68657
186700,62.68657
186733,62.68657
186766,62.68657
186800,62.68657
186833,62.68657
186866,62.68657
186900,62.68657
186933,62.68657
186966,62.68657
187000,62.68657
187033,62.68657
187066,62.68657
187100,62.68657
187133,62.68657
187166,62.68657
187200,62.68657
187233,62.68657
187266,62.68657
187300,62.68657
187333,62.68657
187366,62.68657
187400,62.68657
187433,62.68657
187466,62.68657
187500,62.68657
187533,62.68657
187566,62.68657
187600,62.68657
187633,62.68657
187666,62.68657
187700,62.68657
187733,62.68657
187766,62.68657
187800,62.68657
187833,62.68657
187866,62.68657
187900,62.68657
187933,62.68657
187966,62.68657
188000,62.68657
188033,62.68657
188066,62.68657
188100,62.68657
188133,62.68657
188166,62.68657
188200,62.68657
188233,62.68657
188266,62.68657
188300,62.68657
188333,62.68657
188366,62.68657
188400,62.68657
188433,62.68657
188466,62.68657
