B,G,R,Time[ms]
110.2419839432596,98.65049500073879,77.23779736984682,0.0
109.77109872611466,98.27264132165605,76.58777866242039,33.333333333333336
110.14648064353943,98.40057817998994,76.78954248366013,66.66666666666667
109.82576216434485,98.23392388451444,76.30007066424389,100.0
110.55064611314613,98.59948616198616,76.90682234432235,133.33333333333334
110.5497828784119,98.73456885856079,76.60726840363937,166.66666666666666
110.563482216708,98.71363213399506,76.58214433416045,200.0
110.18398038620968,98.29696188454149,76.73405115761804,233.33333333333331
110.27366863905328,98.4596958372262,76.38098204090106,266.6666666666667
110.84395604395607,98.6441391941392,76.86611721611722,300.0
110.621087709944,98.36774193548383,76.11114369501466,333.3333333333333
110.49989132206707,97.62049665815356,75.62446340270608,366.6666666666666
110.61001082251082,97.75695346320343,75.8265422077922,400.0
110.24467741935484,97.8504569892473,75.65766129032258,433.33333333333337
110.5985544103868,98.1646098246553,76.0441975639138,466.66666666666674
110.28496854504084,97.96391380002676,75.75639138000267,500.0
110.69581444948014,98.29834710743799,76.22703279125568,533.3333333333334
110.42513996267662,98.16480938416422,75.83457744601439,566.6666666666666
110.42775259930686,98.16763529725408,75.82721940815783,600.0
110.90145544346365,98.58115279529216,76.64152480033627,633.3333333333333
110.28629073449792,98.53212789866177,76.69292062519155,666.6666666666666
110.66653292542256,98.96306234013744,77.45047394553389,700.0
109.46305996208721,98.10206524992519,76.32385513319366,733.3333333333333
110.14107631498936,98.24837843316105,76.65029897638594,766.6666666666667
110.18658153440762,98.24929056450796,76.66828823350562,800.0
109.77101558572146,98.27383107088987,76.41955756661639,833.3333333333335
109.81898338953415,98.1529161983265,76.48669913825401,866.6666666666667
109.80374203821657,98.23940087579618,76.50373208598727,900.0
109.8244566160252,98.09489702347021,76.52908374433072,933.3333333333336
110.06223202557683,98.50080547225458,76.74854395400133,966.6666666666664
110.09244343106396,98.48749659223276,76.75516121836972,1000.0
110.031227539716,98.16463852883592,76.70470147959058,1033.3333333333335
109.92531534906956,98.19193205944798,76.47975521418758,1066.6666666666667
109.84703423566879,98.12634355095543,76.51281349522294,1100.0
109.332220113852,97.56073371284,75.74345351043644,1133.3333333333333
110.18457991284076,98.10557920340528,76.54107124759298,1166.6666666666667
110.18427586905848,98.12833181311441,76.51826796392014,1200.0
109.413018141279,97.8310276679842,75.85400831053005,1233.3333333333335
109.8647209421403,97.90235535074244,76.14106502816179,1266.6666666666665
109.67035330261135,97.87014848950331,75.93942652329748,1300.0
109.79549411162311,97.82805939580132,76.12099334357399,1333.3333333333333
109.64342037890422,97.83584229390681,75.89797747055813,1366.6666666666667
109.57959549411163,97.85757808499744,75.86989247311827,1400.0
109.6519699094734,97.74004845084788,75.97577457605506,1433.333333333333
108.79688715953309,97.30342663486886,75.4094891427137,1466.6666666666665
109.45844551689105,97.6263144526289,75.93482346964694,1500.0
109.12316484632969,97.41932943865886,75.66761493522986,1533.3333333333335
108.94199304632374,96.99667655179465,75.38789753553533,1566.666666666667
108.97008896615196,96.99138459965229,75.37529399734123,1600.0
108.83451865594722,96.97394867037724,74.9126984126984,1633.333333333333
109.03808446455506,97.25477626948215,75.76008044243338,1666.666666666667
108.10366781655844,96.80945616883119,74.86490462662339,1700.0
108.40896621793243,96.75829311658623,75.24323088646176,1733.3333333333335
108.24442757748258,96.91499051233394,75.08890575585073,1766.6666666666665
108.226843769766,96.91471220746365,75.10011385199243,1800.0
108.37998734977863,96.77525616698291,75.33363693864644,1833.333333333333
108.17761650114588,96.74700789406671,74.99113827349122,1866.666666666667
108.27615298087738,96.54448307597912,74.99567951733306,1900.0
108.09202438404877,96.63426466852934,74.91389382778766,1933.333333333333
108.1412176419124,96.42252071432249,74.78060830631466,1966.6666666666665
108.20666734839962,96.55399325084365,74.92353512629103,2000.0
108.31359816653936,96.62566844919786,75.01797810033105,2033.333333333333
108.85026938042502,97.07896837274271,75.64199840367155,2066.666666666667
108.73177083333331,97.15599959935898,75.41078225160254,2100.0
108.9569916517591,97.02849831047506,75.86677598886902,2133.333333333333
108.65805744888023,97.34250243427459,75.74291626095423,2166.6666666666665
108.62650925024343,97.34525316455696,75.74050632911394,2200.0
108.90525780436414,97.39301542709065,76.25412317454166,2233.333333333333
108.59105178593501,97.10189098998887,75.53733778272155,2266.6666666666665
108.79277618632456,97.09968862872087,75.73413874704197,2300.0
108.95285996055227,97.51262327416173,76.00700197238659,2333.333333333333
109.03400653400654,97.2104247104247,75.743564993565,2366.6666666666665
108.96293483586479,97.25244977951985,75.82116609505145,2400.0
108.92473826780878,97.53005344461529,75.82436488761991,2433.333333333333
109.34068509034692,97.80932940380713,76.3985409218282,2466.666666666667
109.46026186104936,98.12327277997872,76.49212484297999,2500.0
109.60742050325734,98.11837930783949,76.76353200455306,2533.333333333333
109.19630962221035,97.83449214761512,76.26260514416299,2566.666666666667
109.3496839690558,97.99570490763115,76.35678551382483,2600.0
109.50749506903351,97.68239644970413,76.51540927021695,2633.333333333333
109.07281820455113,97.55523880970242,75.83803450862716,2666.6666666666665
109.0479262672811,97.38926391829618,76.13640552995392,2700.0
109.02340682573241,97.47009966777408,75.85684083358501,2733.333333333333
109.15288572431429,97.19896705610992,75.96154039011181,2766.666666666666
109.17163917163916,97.20277791706364,75.92288020859448,2800.0
109.1061265316329,97.51937984496124,75.89004751187797,2833.333333333333
109.30248138957815,97.67280397022331,76.22774193548388,2866.666666666666
109.20889962750427,97.59027987516359,75.81088291553408,2900.0
109.38955985648592,97.38726059932286,75.88213148718985,2933.333333333333
109.44191080237593,97.60417295882412,75.87662337662337,2966.666666666667
109.315907827581,97.39941381575622,75.66807317196421,3000.0
109.55070999039872,97.46439941381577,75.97935721865683,3033.333333333333
109.38940825711254,97.46131689322351,75.84023952700996,3066.666666666667
109.71004093183079,97.58006973571176,76.23070897973622,3100.0
109.12946793300655,97.45338031045752,75.41214767156862,3133.333333333333
109.3924388055876,97.51677559912856,75.77357426630783,3166.666666666666
109.32766842532469,97.49175629058443,75.80240462662339,3200.0
109.162794237013,97.51217532467531,75.63233056006493,3233.333333333333
109.34249897875816,97.30292585784314,75.65272671568627,3266.666666666666
109.36530395674365,97.69869624538885,75.78917580474003,3300.0
109.37699142156865,97.42164522058823,75.57521446078431,3333.333333333333
109.44067411188034,97.72686846227705,75.8425893172975,3366.666666666666
109.41363889029259,97.73970387589064,75.83980999545203,3400.0
109.6175147809389,97.75056849765022,76.017459194502,3433.333333333333
109.34152879901958,97.44523590686278,75.45641850490195,3466.666666666667
109.52550551470587,97.41676879084969,75.74816176470588,3500.0
109.3710426879085,97.33723958333334,75.58037173202615,3533.333333333333
109.65179200644316,97.42411658109332,76.15415785764624,3566.666666666667
109.70878145292208,97.41560978084415,76.09468851461041,3600.0
109.38859714928732,97.62525631407853,75.94908727181794,3633.333333333334
109.68045833852284,97.77386972225682,76.41776061776064,3666.666666666666
109.53804443328731,97.78815112338395,76.07686707669136,3700.0
109.43445861465366,97.6475868967242,76.14428607151788,3733.333333333334
109.30637572798253,97.63925129065892,75.74176648610158,3766.666666666666
109.26868594389768,97.65568017090105,75.72757559573766,3800.0
109.32201197240259,97.60460633116884,75.87444196428572,3833.333333333334
109.25955141129032,97.79054939516128,75.8649193548387,3866.666666666666
109.57855869620577,97.75123503947032,75.95879806468042,3900.0
109.50893812070282,97.7744843391902,75.76651387827859,3933.333333333333
109.69399666481381,97.70076810349184,75.99244529789276,3966.666666666667
109.71539744302393,97.71092526150892,75.9619485572793,4000.0
109.70493284799801,97.79902096146608,75.95551650558555,4033.333333333333
109.7736150568182,97.56440239448051,76.12649655032467,4066.666666666666
109.33247759991946,97.73001610792306,75.86758783851806,4100.0
109.71820455113777,97.81902975743937,76.37606901725431,4133.333333333334
109.8009037278775,98.06685075938246,76.3421865193925,4166.666666666667
109.64621155288822,97.91167791947987,76.23425856464117,4200.0
110.06754188547136,97.97534383595898,76.56996749187294,4233.333333333333
109.98077019254814,98.03898474618654,76.53440860215053,4266.666666666667
110.23408352088022,98.1165791447862,76.86296574143536,4300.0
110.1365091272818,98.15711427856964,76.62525631407851,4333.333333333333
110.351487871968,98.23523380845215,76.75038759689923,4366.666666666666
110.34866216554138,98.2618654663666,76.73960990247562,4400.0
110.10912514120749,98.09476590937618,76.33013681435924,4433.333333333334
110.25878013037548,98.11637778563849,76.41803527212087,4466.666666666667
110.23293586042423,98.2290448098406,76.3822015815238,4500.0
110.73691152597405,98.29400872564936,76.83941254058442,4533.333333333333
110.55319582378405,98.54749172396231,76.63845174433409,4566.666666666666
110.52857142857141,98.57201426024956,76.56717596129361,4600.0
110.76628469569646,98.55395976572449,77.02602495543671,4633.333333333334
110.73813784640556,98.84594539318948,76.91458738112281,4666.666666666667
110.79712945784374,98.52239229024944,76.78571428571428,4700.0
110.64021354139929,98.76551511729376,76.60587238848109,4733.333333333333
110.902495543672,98.8527374586198,76.91965877259993,4766.666666666667
110.92258721670488,98.85220269926151,76.92806213394448,4800.0
110.90924490529234,98.94014680971205,76.62727786047945,4833.333333333333
111.19212036210634,99.04023970419482,76.9254111946959,4866.666666666666
111.41510809451984,99.6578431372549,77.35618401206635,4900.0
111.4987341772152,99.58369322412508,77.53343261355172,4933.333333333334
111.46570905854428,99.72223595727849,77.64490209651899,4966.666666666667
111.46111056170885,99.71654964398735,77.61770668512658,5000.0
111.67884056543369,99.73954587991922,77.88046101561345,5033.333333333333
111.54646193599682,99.67074140329954,77.52310673822302,5066.666666666666
111.73804909560724,99.65116279069768,77.87944742595906,5100.0
111.49802953207623,99.40052878379728,77.53566796368352,5133.333333333334
111.54415126217451,99.26923076923076,77.75218644404691,5166.666666666667
111.52449811170742,99.28177797654541,77.72796163784534,5200.0
111.42255312780605,99.55065848548338,77.54215304798963,5233.333333333333
111.52475648323843,99.47458570524984,77.61176470588234,5266.666666666667
111.57373634747269,99.6024384048768,77.50988061976123,5300.0
111.75948691897385,99.62334264668527,77.76136652273306,5333.333333333333
111.33294386588771,99.39166878333755,77.27889255778511,5366.666666666666
111.45391524351679,99.57151170145477,77.50292220113853,5400.0
111.55920751841505,99.4237998475997,77.48448056896112,5433.333333333334
111.5889894419306,99.73547008547008,77.62860734037204,5466.666666666667
111.80412397216952,99.66251739405442,77.94077166350412,5500.0
111.50378681626928,99.60158102766798,77.34593905393344,5533.333333333332
111.547523495047,99.36939293878588,77.56713233426467,5566.666666666666
111.54549149098301,99.36035052070105,77.58328676657355,5600.0
111.16045540796965,99.23314358001265,77.19165085388995,5633.333333333334
111.26931499872677,99.1108734402852,77.26378915202444,5666.666666666668
111.12652191558443,99.36036424512987,77.24315137987014,5700.0
111.211077158136,99.14820473644005,77.36946778711484,5733.333333333332
111.11846193022663,99.12113572701807,77.2559205500382,5766.666666666668
111.09271708683474,99.144461420932,77.18545963840081,5800.0
111.44096812278632,99.13315538216723,77.34359119141729,5833.333333333332
111.31602587136184,99.14100918844002,77.18369180226888,5866.666666666666
111.6315229795622,99.23098869177299,77.31932773109243,5900.0
111.51719576719576,99.21413009648305,77.15385413424629,5933.333333333334
112.01097199254535,99.44867049898943,77.35564480142794,5966.666666666668
112.03383468514582,99.45489146126991,77.42213297634984,6000.0
111.87245788089471,99.82170663750229,77.31213707262455,6033.333333333332
111.7932713590084,99.4452516730464,77.35158711558994,6066.666666666666
111.60760878056402,99.52383928338932,77.18175663359635,6100.0
111.64106753812635,99.39213092644465,77.30910882871667,6133.333333333334
111.76152165531424,99.78527181596195,77.47040226192006,6166.666666666668
111.4624183006536,99.44517066085692,77.04876024483869,6200.0
111.64205515599936,99.28788741139336,77.10143840223522,6233.333333333332
111.55042774685631,99.32562873634302,77.03782725211295,6266.666666666668
111.74447004608295,99.42222222222222,77.36451612903225,6300.0
111.33703939818943,99.29537166900421,77.093867142675,6333.333333333332
111.39897849186389,99.13146142395156,77.1662132334069,6366.666666666666
111.66554019457243,99.41374807987712,77.41679467485919,6400.0
111.36629045557615,99.28527623170478,76.98165326736755,6433.333333333334
111.60122938064112,99.28786699865131,77.26958190683679,6466.666666666668
111.23192942515652,99.30961866818441,76.75792932167435,6500.0
111.66509803921568,99.20533333333331,77.09754248366012,6533.333333333332
111.51797402597404,99.27657142857143,76.9491168831169,6566.666666666666
111.49254545454546,99.27893506493507,76.96005194805196,6600.0
111.56565944016144,99.18978630930822,77.1348372742795,6633.333333333334
111.41017316017314,99.41829004329004,77.01960935889507,6666.666666666668
111.96879578460351,99.64053463565094,77.7250481943195,6700.0
111.81810420655044,99.55360376675115,77.45431261965128,6733.333333333332
111.7738095238095,99.470942140297,77.59116743471583,6766.666666666668
112.04887352790578,99.76623143881208,77.9241167434716,6800.0
111.54111623143879,99.40985663082438,77.33274449564772,6833.333333333332
111.79416527438632,99.56697082637191,77.51178511759414,6866.666666666666
111.60791672021593,99.56599408816349,77.27762498393523,6900.0
111.63778086992373,99.27169655741085,77.31326015254587,6933.333333333334
111.21819715717352,99.44999488700277,76.99110338480415,6966.666666666668
111.06224013141008,99.31420358297831,76.78070940916791,7000.0
111.69320122108972,99.50499301495316,77.3647229264759,7033.333333333332
111.44854348838413,99.54278987944326,77.12730894603405,7066.666666666666
111.55148051948052,99.38148051948052,77.31389610389611,7100.0
111.33258606472893,99.4290352504638,77.19975262832405,7133.333333333334
111.4777107812822,99.4234436198722,77.30604514533086,7166.666666666668
111.52540713254999,99.39548546691404,77.30596784168213,7200.0
111.35496420790537,99.29435107376284,76.95430023861397,7233.333333333332
111.652509752254,99.46410395515257,77.41243638430339,7266.666666666668
111.5535906780966,99.47541193983879,77.31977311226323,7300.0
111.65757060399919,99.33011234796949,77.29419191919192,7333.333333333332
111.66539192033264,99.51319234125559,77.21775062881783,7366.666666666666
111.540120593692,99.35469490826631,76.99778396206969,7400.0
111.77400552203702,99.2725227528377,77.5286072195521,7433.333333333334
111.52725227528376,99.23783106657122,77.16573780550158,7466.666666666668
111.6618895830677,99.1849292362616,77.42833099579242,7500.0
111.58456221198156,99.3873783922171,77.25069124423963,7533.333333333332
111.60204081632652,99.27352607709749,77.3922902494331,7566.666666666666
111.59539270253555,99.27870542156256,77.37203669346526,7600.0
111.41093886350805,99.48832195472514,77.3008572455213,7633.333333333334
111.31142628329329,99.17962231005708,77.14283499961249,7666.666666666668
111.29217242452536,99.38131548915862,76.92211328976035,7700.0
111.41369586588706,99.29870129870129,76.97713043928185,7733.333333333332
111.32699443413729,99.46170892599464,76.89679962894247,7766.666666666668
111.3044733044733,99.47436095650379,76.86752731395588,7800.0
111.58853844568131,99.43753865182435,77.05820964749536,7833.333333333332
111.60161182690828,99.58531389559059,77.14075252810431,7866.666666666666
111.86833324777989,99.58826548945127,77.60597505261538,7900.0
111.65734464738449,99.51849743881614,77.29466549386868,7933.333333333334
111.89783722253841,99.4158689915662,77.48057122160708,7966.666666666668
111.89468101619495,99.41954260878565,77.52191235059759,8000.0
111.75532931121164,99.81518350930115,77.77043740573151,8033.333333333332
111.9608633306962,99.93332179588607,78.20050435126579,8066.666666666666
111.82165605095543,99.78953307588144,77.89548121771405,8100.0
111.93425122218895,99.76953008081414,78.13149755562206,8133.333333333332
111.70889920923813,99.67244885151248,77.705259194176,8166.666666666666
111.87089213709677,99.82237903225807,77.80433467741935,8200.0
111.82036685642001,99.6535357368754,77.72761543327009,8233.333333333332
111.52852624920936,99.68349146110056,77.48301075268817,8266.666666666668
111.61487140310669,99.68217468805705,77.54968169085815,8300.0
111.23319786639573,99.55842011684021,77.1240030480061,8333.333333333334
111.59654377880184,99.4921146953405,77.39731182795698,8366.666666666668
111.6547363031234,99.4825652841782,77.42386072708653,8400.0
111.32217584003298,99.31194599051744,77.0280869923727,8433.333333333334
111.39892898125716,99.33632538569424,77.38243019252836,8466.666666666666
111.18320414763106,99.21674965350857,77.06675735331862,8500.0
111.46344511028944,99.41065918653575,77.3996939946449,8533.333333333334
111.33097312999271,99.35078846353355,77.01405747484179,8566.666666666666
111.32282913165264,99.35465297230007,77.01136009959541,8600.0
111.76966690290571,99.53090794550751,77.25802556631756,8633.333333333332
111.4198431372549,99.35440522875817,77.08739869281045,8666.666666666666
111.78289782506651,99.5545558858812,77.43394356647369,8700.0
111.5250314201927,99.3722245496439,77.02547653958945,8733.333333333332
111.75629791894852,99.52967715015907,77.26753768320033,8766.666666666668
111.80378657487093,99.51937620612318,77.33894017628955,8800.0
111.63054799844542,99.68907889623009,77.31651768363776,8833.333333333334
111.83116883116881,99.50263879546749,77.56467635949706,8866.666666666668
111.75517419354836,99.92260645161294,77.46487741935483,8900.0
111.59071895424835,99.30917647058823,77.11613071895424,8933.333333333334
111.5463082733999,99.5884513892482,77.20026387954674,8966.666666666666
111.6057576147025,99.74913250224907,77.31785117594141,9000.0
111.73286076473327,99.58979665752571,77.33510115382623,9033.333333333334
111.70361136100756,99.75039198046524,77.28944865698494,9066.666666666666
111.30921459492887,99.16849618635332,76.81016800659657,9100.0
111.1088546529723,99.09588650274924,76.53104575163398,9133.333333333332
111.47844983701557,99.24507166140631,76.96732550318205,9166.666666666666
111.72171056035593,99.5395043203808,77.28072127076109,9200.0
111.62097066280329,99.47842396647177,77.12221244890567,9233.333333333332
111.68636363636364,99.35670129870131,77.15264935064936,9266.666666666668
111.55230060151553,99.44790771554304,77.02499804702758,9300.0
111.67143894594878,99.26348687623195,77.32176574333438,9333.333333333334
111.3625283446712,99.3584827870542,77.107967429396,9366.666666666668
111.32508761080187,99.36621315192744,77.08227685013402,9400.0
111.798817632695,99.60442102557512,77.68471918776507,9433.333333333334
111.41513056835636,99.44572452636969,77.36904761904762,9466.666666666666
111.73962215653515,99.610744120293,77.70674720472947,9500.0
111.45501792114695,99.46349206349207,77.38236047107014,9533.333333333334
111.66111688311688,99.36033766233768,77.37649350649352,9566.666666666666
111.69828571428572,99.34093506493507,77.42415584415585,9600.0
111.47169068430586,99.22694700370107,76.88668399086542,9633.333333333332
111.52781699346407,99.01322875816992,76.97835294117647,9666.666666666666
111.51058201058201,99.28965660338207,77.09536777674032,9700.0
111.62039424003332,99.0792906804156,77.10186704163738,9733.333333333332
111.45410514803531,99.05398015780015,76.8572246959873,9766.666666666668
111.44618909980991,99.06856235189959,76.83311199645861,9800.0
111.89782048277479,99.34997265838606,77.61247819180794,9833.333333333334
111.49576855974794,99.45811525141264,77.21948806082858,9866.666666666668
111.74871754810822,99.38694893628102,77.48451943858552,9900.0
111.684165232358,99.45013821519844,77.30733322901996,9933.333333333334
111.83594508753971,99.37627634721895,77.29863243824973,9966.666666666666
111.66269281045751,99.25022222222222,77.20151633986927,10000.0
111.6173451977846,99.42433787437332,77.01724545239783,10033.333333333334
111.67095424836599,99.23043137254902,77.18433986928105,10066.666666666666
111.55315032679735,99.23571241830065,77.02240522875816,10100.0
111.82912040318136,99.41609575557129,77.25710685880779,10133.333333333332
111.68417460692444,99.4305588366538,77.05559492873455,10166.666666666666
111.6516523610783,99.43719977951021,77.03630207102921,10200.0
111.93299650213758,99.64316621324005,77.50185257157662,10233.333333333332
111.61835773787963,99.5728255807937,77.20730066746003,10266.666666666668
111.8799089356858,99.55841568789776,77.54514409892896,10300.0
111.71780392156862,99.5447320261438,77.2230588235294,10333.333333333334
111.93569032258064,99.7587870967742,77.71801290322581,10366.666666666668
111.93423376623377,99.70384415584415,77.63706493506494,10400.0
111.50128896179984,99.46603129963805,77.10204931906361,10433.333333333334
111.59824836601307,99.23179084967319,77.17014379084965,10466.666666666666
111.53353282410689,99.38378350001312,77.04719531721658,10500.0
111.69512035068378,99.43551985720659,77.21657873323359,10533.333333333334
111.84753351487223,99.61667364893171,77.20671868454126,10566.666666666666
111.85798072894848,99.60659300377044,77.15736279849183,10600.0
111.83447515552406,99.37517389820721,77.15064178281754,10633.333333333332
111.8651697238035,99.49862955935062,77.08926312460468,10666.666666666666
112.03457727176891,99.53067678684376,77.23529411764707,10700.0
111.77523164553641,99.3644118959498,76.99984250728404,10733.333333333332
112.20368831168831,99.52109090909092,77.72511688311687,10766.666666666668
112.19046753246755,99.52916883116885,77.74981818181818,10800.0
111.7614353517968,99.35349188963646,77.07215876492985,10833.333333333334
112.04574025974027,99.46735064935065,77.45381818181819,10866.666666666668
111.56109090909092,99.20109090909092,76.96322077922078,10900.0
111.8251151239199,99.33890412376469,77.42220727479692,10933.333333333334
111.68755045178764,99.29302398250135,77.13176053954119,10966.666666666666
111.65505299065175,99.305835481603,77.10676249251361,11000.0
111.69327917089814,99.36898158997995,77.16522146707288,11033.333333333336
111.49158169934641,99.22658823529413,76.82062745098038,11066.666666666664
111.86671895424836,99.55077124183006,77.31631372549019,11100.0
111.55081634247324,99.4074421269172,77.00966070359088,11133.333333333332
111.56122875816992,99.3253594771242,76.97139869281045,11166.666666666664
111.667012987013,99.46784415584415,77.19581818181818,11200.0
111.33997385620914,99.294431372549,76.77809150326796,11233.333333333332
111.52326641147829,99.09918495950838,77.13275004556934,11266.666666666668
111.42303513219849,99.4844518031769,77.1920111760749,11300.0
111.54119480519479,99.28794805194806,77.26002597402598,11333.333333333336
111.42779220779221,99.33459740259741,77.05283116883119,11366.666666666668
111.41763636363638,99.36397402597404,76.99067532467531,11400.0
111.44145495938324,99.24377813421637,77.02346458322553,11433.333333333336
111.32721401973805,99.13504153321355,76.75843033096373,11466.666666666664
111.6798181818182,99.35451948051949,77.12241558441559,11500.0
111.477478870336,99.35513296227579,77.06699649556792,11533.333333333336
111.54761904761904,99.34943826015257,77.28223562152134,11566.666666666664
111.58402906617191,99.33632240775096,77.27262420119563,11600.0
111.41264935064936,99.30748051948052,76.92519480519479,11633.333333333332
111.85075324675327,99.56296103896105,77.32116883116883,11666.666666666664
112.03310291858679,100.08607270865336,77.85332821300564,11700.0
112.4119906986149,100.07243959154788,78.3140228490547,11733.333333333332
111.7982762106966,99.83335860883629,77.59935800222425,11766.666666666668
111.81010514609241,99.84470730967548,77.57868264078455,11800.0
111.8616852546512,99.69889982628835,77.73716673799755,11833.333333333336
112.00203119514521,100.12799037063044,77.92775465168766,11866.666666666668
112.46802748382568,100.41062741361151,78.53392848186971,11900.0
112.16517767009891,100.20058550373513,78.03939531597013,11933.333333333336
112.23449428094077,99.94525125305228,77.76542860814806,11966.666666666664
112.2343143554813,99.9536049350983,77.80822516386068,12000.0
111.80990783410135,99.84393241167434,77.48968253968253,12033.333333333336
111.97775217613928,99.84659498207886,77.73146441372249,12066.666666666664
111.85115207373272,99.84769585253456,77.54715821812596,12100.0
112.0505823541538,99.74695938981651,77.63270459699031,12133.333333333332
111.73891447198221,99.51774719304599,77.20292854555801,12166.666666666664
111.68851701658026,99.52076382115908,77.26359016477593,12200.0
111.98971854517414,99.55766610975456,77.68489911322452,12233.333333333332
111.7935483870968,99.76756272401434,77.58136200716847,12266.666666666668
112.0620634345734,99.72181404253115,77.70719718528483,12300.0
111.6857349000206,99.67782415996702,77.38943001443,12333.333333333336
111.98755197371796,99.91643139469228,77.80968636106977,12366.666666666668
111.99476412915148,99.9173810379344,77.83399209486167,12400.0
111.66792929292929,99.77623170480312,77.34879406307978,12433.333333333336
111.98021148811665,99.99050356757868,77.75039782352036,12466.666666666664
111.83887825322088,99.99855124954728,77.46106483158276,12500.0
111.88376108018964,99.818413729128,77.5618944547516,12533.333333333336
111.67741187384044,99.8378169449598,77.29643372500514,12566.666666666664
111.65437538651823,99.8531746031746,77.27628324056893,12600.0
111.7256687535572,99.72978217002121,77.30090029492418,12633.333333333332
111.47044155844156,99.61093506493505,76.83251948051948,12666.666666666664
111.68743558029271,99.49314574314572,77.39481550195835,12700.0
111.34418151018942,99.73366356963196,77.14329346542786,12733.333333333332
111.61003028591965,99.62676453980801,77.41491709871157,12766.666666666668
111.53674500103071,99.45150484436199,77.2128427128427,12800.0
111.3353614889048,99.5397024235607,77.1079609367011,12833.333333333336
111.53420595152878,99.49008078535635,77.32365272522752,12866.666666666668
111.37061945990514,99.54540300968873,76.98144712430427,12900.0
111.82423852975195,99.84559825215271,77.5569464079167,12933.333333333336
111.82805939580132,99.98335893497185,77.63699436763953,12966.666666666664
111.81981566820276,99.97009728622628,77.62834101382488,13000.0
111.6739847454133,99.46482683982686,77.30434446505875,13033.333333333336
111.59362969046764,99.65427852779631,77.35788717211642,13066.666666666664
111.72913466461857,99.67393753200204,77.46612903225807,13100.0
111.68065791151345,99.84143822516891,77.53270432232564,13133.333333333332
111.66090602311071,99.50595664178341,77.5788424174251,13166.666666666664
111.66780856938335,99.51439308722773,77.57669495858472,13200.0
111.30978902520405,99.3490837226015,76.99129921461937,13233.333333333332
111.67716435037613,99.4627310977942,77.39120234604106,13266.666666666668
111.71290322580644,99.66428571428571,77.27951868919611,13300.0
111.75257810515622,99.6653543307087,77.71953263906528,13333.333333333336
111.67188575800077,99.79015682774448,77.69468315695525,13366.666666666668
111.64424327425728,99.80770113476986,77.67071273747291,13400.0
111.60070088641515,99.49917542774685,77.4354772211915,13433.333333333336
111.36780152118796,99.35949707662857,76.95151860092098,13466.666666666664
111.48931546541107,99.3455787240648,77.19684896776529,13500.0
111.23802679533905,99.3539346029465,76.97787587906166,13533.333333333336
111.39435860582107,99.40059545197886,77.13810892664648,13566.666666666664
111.31184291898576,99.28244176458462,76.96709441352299,13600.0
111.38157081014224,99.61863533292104,77.02484023912596,13633.333333333332
111.62141112967484,99.61030715846293,77.40300732553656,13666.666666666664
111.30342981002168,99.58220068851205,77.22353691189595,13700.0
111.38196596393192,99.353873507747,77.3748031496063,13733.333333333332
111.44437388874779,99.68534417068834,77.41153162306323,13766.666666666668
111.4529591059182,99.68392176784351,77.41828803657606,13800.0
111.57161890397184,99.54979889391652,77.71618903971844,13833.333333333336
111.44929612870787,99.57589240824534,77.4400703871292,13866.666666666668
111.6490575585073,99.5167109424415,77.60288425047439,13900.0
111.28881048387095,99.3258316532258,77.18329133064516,13933.333333333336
111.43797576121794,99.37119391025641,77.46849959935899,13966.666666666664
111.43084677419355,99.31413810483869,77.3937247983871,14000.0
111.46378241619229,99.45730550284631,77.2716255534472,14033.333333333336
111.49171410499686,99.49561037318152,77.43304237824162,14066.666666666664
111.36267641129032,99.66038306451613,77.38820564516129,14100.0
111.62975332068312,99.43868437697658,77.60852624920936,14133.333333333332
111.30669196710943,99.53034788108792,77.17900063251108,14166.666666666664
111.31524351676157,99.53662239089184,77.15235926628715,14200.0
111.57454775458572,99.43104364326376,77.50150537634408,14233.333333333332
111.39160025300444,99.49151170145477,77.29171410499684,14266.666666666668
111.73505207010416,99.62131064262128,77.69260858521717,14300.0
111.52596910963051,99.76824651726228,77.48442862911368,14333.333333333336
111.63976377952757,99.8286896830204,77.80471431455683,14366.666666666668
111.63794669897032,99.8458509993943,77.77554007672119,14400.0
111.45697231394465,99.7977901955804,77.53525527051055,14433.333333333336
111.52156062731098,99.65286242509244,77.43544562029835,14466.666666666664
111.51226088726088,99.92249185999184,77.45405982905983,14500.0
111.52247864337627,99.68764503378807,77.40405457095498,14533.333333333336
111.49290834613414,99.80401945724527,77.30427547363031,14566.666666666664
111.4983870967742,99.7878904249872,77.27534562211981,14600.0
111.86958525345621,99.69464925755248,77.71026625704043,14633.333333333332
111.2241744230524,99.59966849419865,77.0979727145225,14666.666666666664
111.72998066748066,99.69541107041107,77.69660663410663,14700.0
111.33604488078541,99.5440775213566,77.22912150962641,14733.333333333332
111.63312638804764,99.78250555219059,77.5915101958409,14766.666666666668
111.52559035167731,99.61358568967265,77.41023107327455,14800.0
111.58660180399308,100.01221242525592,77.55743893787371,14833.333333333336
111.57536195072392,99.81285242570485,77.51386842773684,14866.666666666668
111.38204216408433,99.88199136398272,77.351968503937,14900.0
111.61983743967487,99.81590043180088,77.56118872237745,14933.333333333336
111.5515621031242,99.81463042926086,77.4022606045212,14966.666666666664
111.52760985521972,99.82786385572771,77.39588519177039,15000.0
111.72032004064009,99.82364744729489,77.55189230378461,15033.333333333336
111.5023622047244,99.88415036830074,77.36449072898145,15066.666666666664
111.73759207518415,99.80972821945645,77.69204978409957,15100.0
111.3839471678943,99.87792735585472,77.43670307340615,15133.333333333332
111.66502413004828,99.79507239014478,77.83258826517654,15166.666666666664
111.67348234696469,99.79052578105156,77.84775209550419,15200.0
111.31515322622043,99.44522868435915,77.16672655407834,15233.333333333332
111.68738404452692,99.50845186559471,77.52198000412285,15266.666666666668
111.46400449943756,99.5718376112077,77.25472952244606,15300.0
111.84873135279871,99.83496111181944,77.76853244931786,15333.333333333336
111.65092875252238,99.64730687639052,77.22667770476535,15366.666666666668
111.68078541374472,99.81836032130562,77.51957159250287,15400.0
111.66397849462365,99.67324628776241,77.59441884280594,15433.333333333336
111.54449564772145,99.70407066052229,77.35189452124936,15466.666666666664
111.52447516641064,99.33768561187915,77.33259088581669,15500.0
111.36677291852608,99.49483615963278,77.26426112456967,15533.333333333336
111.85010240655402,99.65619559651816,77.81533538146441,15566.666666666664
111.86502816180237,99.67194060419868,77.81515616999488,15600.0
111.58090219766096,99.8764940239044,77.50237758642848,15633.333333333332
111.8366533864542,99.80706850019276,77.83755301375145,15666.666666666664
111.50842293906807,99.68084997439837,77.54802867383512,15700.0
111.6993918779633,99.52873118944548,77.47366522366522,15733.333333333332
111.48937532002049,99.62388632872505,77.39810547875064,15766.666666666668
111.61410174678056,99.76883845467295,77.58018615325769,15800.0
111.8282799948999,99.74392451867908,77.66854519954099,15833.333333333336
111.50426720853442,99.61267462534927,77.4534417068834,15866.666666666668
111.91607803136554,99.67369628968508,77.70832589570317,15900.0
111.52100584201168,99.5433070866142,77.39834899669799,15933.333333333336
111.73146441372248,99.51697388632871,77.53026113671275,15966.666666666664
111.71961085509471,99.53097798259087,77.55166410650281,16000.0
111.80801331285204,99.84695340501793,77.64014336917562,16033.333333333336
111.7408781694496,99.38638940424654,77.47856112141827,16066.666666666664
111.41548051948051,99.46483116883115,77.00488311688312,16100.000000000002
111.51253808296228,99.22326380751505,77.0793167200479,16133.333333333332
111.38906710819059,99.40997050758007,77.01003777099396,16166.666666666668
111.39949293734152,99.40342525999895,76.99718011072592,16200.0
111.56487774392626,99.15964898575632,77.04486628648803,16233.333333333336
111.35297769959124,99.29981373208463,76.9892895948673,16266.666666666664
111.66189435805168,99.4412286338517,77.37447628839479,16300.0
111.70785246112324,99.6619200616887,77.42223364606093,16333.333333333332
111.86469705593213,99.57647332746934,77.5113830392715,16366.666666666668
111.82651213328505,99.59033993894552,77.4868577637502,16400.0
111.54834054834056,99.40231395588538,77.0808596165739,16433.333333333332
111.85959454290449,99.57544307025371,77.65722300140253,16466.666666666664
111.4983997967996,99.3731775463551,77.32235204470409,16500.0
111.54386325137314,99.10761767876393,77.39600123196962,16533.333333333336
111.1733483907397,99.1802012217032,77.0583132282737,16566.666666666668
111.3263244691816,99.32635023706452,77.18300350443207,16600.0
111.64150025601641,99.357910906298,77.57403993855606,16633.333333333332
111.0278363669505,99.20558289716948,76.75587844699632,16666.666666666668
111.29031586074005,99.12639637528318,76.9756008645158,16700.0
111.39816993464052,99.3142222222222,76.91254901960784,16733.333333333336
111.67124183006537,99.29121568627451,77.10499346405227,16766.666666666664
111.67278431372549,99.29045751633987,77.1312679738562,16800.0
111.54983006535947,99.24705882352941,76.91498039215686,16833.333333333332
111.58412103221106,99.07231205895373,77.01575397755384,16866.666666666668
111.41557734204792,99.23511256354394,77.07817200954456,16900.0
111.39720855141528,99.04611618883942,76.93750488243106,16933.333333333332
111.27279118818842,99.0357784548082,76.8121500924407,16966.666666666664
111.23490352316229,99.06150561154075,76.75593052626097,17000.0
111.28118694054949,98.9957831013608,76.83106534899362,17033.333333333336
111.31642262120349,99.07621462203134,76.8230713509598,17066.666666666668
111.49309256480568,99.08454493713457,77.16213069798727,17100.0
111.57437781342165,99.411781445646,77.25081492212966,17133.333333333332
111.83111667449016,99.38752412246387,77.41355030511656,17166.666666666668
111.87252907734836,99.37495436290615,77.46210817295155,17200.0
111.74252855578156,99.38100453763106,77.29309445574505,17233.333333333336
111.96917540291037,99.34506858603243,77.67295154644552,17266.666666666664
111.67509090909093,99.21454545454546,77.2548051948052,17300.0
111.82725161290324,99.24350967741935,77.56696774193549,17333.333333333332
111.67651948051949,99.1629090909091,77.28748051948051,17366.666666666668
111.61788235294115,99.0087320261438,77.05997385620914,17400.0
111.78789677419356,99.28054193548388,77.53171612903226,17433.333333333332
111.56354100780096,99.1557558507274,76.91442652329752,17466.666666666664
111.98589161842173,99.29909247379128,77.5069889949408,17500.0
111.5715064935065,99.21566233766234,76.90077922077924,17533.333333333336
111.67576470588234,99.0962614379085,77.04786928104575,17566.666666666668
111.70454901960785,99.09932026143792,77.05312418300653,17600.0
111.51061437908496,99.17751633986929,76.81189542483659,17633.333333333332
111.70667532467532,99.16955844155844,77.17516883116883,17666.666666666668
111.82923870967741,99.60500645161294,77.43447741935483,17700.0
111.67016993464053,99.06596078431372,77.0431111111111,17733.333333333336
111.64298701298702,99.09584415584415,76.86683116883117,17766.666666666664
111.71550162984423,99.24812438557457,77.04141874062192,17800.0
111.7330117232078,99.01589895217346,77.05088702147525,17833.333333333332
111.70655042168984,99.19798727169243,77.07378279091427,17866.666666666668
111.77420779220779,99.04511688311688,77.14542857142858,17900.0
111.5931948051948,99.07096103896104,77.01464935064935,17933.333333333332
111.84071350336409,98.98839513899756,77.18625149950452,17966.666666666664
111.85062327231,98.99940019819536,77.18312209878475,18000.0
111.3780203859885,99.03942670874945,76.79857194598229,18033.333333333336
111.4199733073251,99.07597145937069,77.07319952774498,18066.666666666668
111.41251803751804,99.26716141001856,76.97796846011131,18100.0
111.37338955864851,99.1060433590314,77.07424846070263,18133.33333333333
111.3333075654504,99.26522881880024,77.02084621727478,18166.666666666668
111.3001443001443,99.27532982890123,77.04166666666666,18200.0
111.34276987834299,99.04517221908527,77.11267388737745,18233.333333333336
111.46482334869431,99.31682027649772,77.22954429083461,18266.666666666664
112.13742150902023,100.03002591448221,78.21588757101564,18300.0
111.89388102266471,99.81317856606792,77.82075849302045,18333.33333333333
111.91284335191084,99.6515226910828,77.91368929140128,18366.666666666668
111.92065585191084,99.66799363057324,77.90353801751594,18400.0
111.65424875327112,99.7708487631462,77.75448081765664,18433.33333333333
112.01837050881636,99.95022502028871,78.24314487371812,18466.666666666664
111.4390402075227,99.68447570587648,77.61304000798164,18500.0
111.756956867422,99.88787020473069,78.03711985688729,18533.333333333336
111.7385263893046,100.07951711064553,77.96667664371944,18566.666666666668
111.73792776613787,100.08989324553528,77.90766237653396,18600.0
111.6304998503442,99.72161528484486,77.8765339718647,18633.33333333333
111.62494991987178,99.91090745192308,77.8096203926282,18666.666666666668
111.63217100668464,99.77663873091889,77.95300808141275,18700.0
111.31436491935484,99.45824092741935,77.33722278225807,18733.333333333336
111.42033950301666,99.276101850905,77.28857756416811,18766.666666666664
111.43790264853256,99.27796809489722,77.29509663564781,18800.0
111.30780243378668,99.24659985683607,76.99325084364455,18833.33333333333
111.51209223847022,99.23302484916657,77.1721801820227,18866.666666666668
111.37795275590551,99.2539625728602,77.0220881480724,18900.0
111.58370257193786,99.1301247771836,77.32172141583906,18933.33333333333
111.51700680272108,99.31099257884972,77.02275304061018,18966.666666666664
111.48840445269016,99.32591218305504,77.02558750773036,19000.0
111.77331759149942,99.44646065397056,77.4796981674452,19033.333333333336
111.52142345843131,99.34367010941814,77.11174455465793,19066.666666666668
111.48803962835585,99.20173502386942,77.28684359119144,19100.0
111.44007567235913,99.38654259126699,77.15870743429798,19133.33333333333
111.71366522733044,99.54175768351536,77.58288036576073,19166.666666666668
111.88022440392706,99.71171745505545,77.69963024352926,19200.0
111.7634833609588,99.73874792808874,77.46395511921459,19233.333333333336
111.92102511793956,99.8256789493816,77.70246079306388,19266.666666666664
111.7157465255642,99.84880785413743,77.45181690679587,19300.0
111.85254863713362,99.77488321954728,77.56842564550075,19333.33333333333
111.52971036899609,99.56867140795714,77.21034322820037,19366.666666666668
111.51164708307564,99.57565450422592,77.17475778190064,19400.0
111.75012883941454,99.44993300350443,77.46420841063697,19433.33333333333
111.52752176139273,99.57076292882743,77.30115207373272,19466.666666666664
111.8006193548387,99.52732903225807,77.43865806451612,19500.0
111.71187975371242,99.55150825270347,77.06434004242769,19533.333333333336
111.90816090476801,99.70998586299964,77.51109111939341,19566.666666666668
111.91877650687573,99.72276057062072,77.49281583344043,19600.0
111.74357168935482,99.58167735878578,76.97817242997967,19633.33333333333
111.8408702850934,99.57357582656387,77.3116365706007,19666.666666666668
111.35010606922957,99.345035442645,76.86128214415066,19700.0
111.75927643784786,99.44547515976087,77.29970624613482,19733.333333333336
111.64478973407543,99.41452793238508,77.14661925376211,19766.666666666664
111.53019092461322,99.28123868163708,76.94264500439799,19800.0
112.01371138821337,99.5925389351684,77.36011796967972,19833.33333333333
111.85766026801883,99.70220417033165,77.07414497852744,19866.666666666668
112.25451741421408,99.8799897185452,77.59113224521269,19900.0
112.16057062074283,100.28662125690785,77.39660711990747,19933.33333333333
112.1115975422427,100.00657962109577,77.55427547363031,19966.666666666664
112.14431643625193,99.9879416282642,77.55862775217614,20000.0
111.98036223036225,100.02014652014653,77.39585877085877,20033.333333333336
112.2861585914407,100.06834597095491,77.71332733581801,20066.666666666668
111.90284025189564,99.70816090476801,77.35545559696698,20100.0
112.03691042282485,99.7373345328364,77.58185323223236,20133.33333333333
111.85531422696312,99.72219509060531,77.29034828428223,20166.666666666668
112.02294193548387,99.8592,77.40523870967742,20200.0
111.73698721913007,99.4628169449598,77.27249536178107,20233.333333333336
111.79874052178384,99.78447500321295,77.34334918390951,20266.666666666664
111.98236730497364,99.83714175555842,77.60221051278756,20300.0
111.76769052820974,99.80210769823928,77.27549158205886,20333.33333333333
112.09723685901557,99.7915177997687,77.60434391466393,20366.666666666668
112.11016578845907,99.78239300861073,77.57532450841794,20400.0
111.82714304074028,99.85762755429892,77.11124534121578,20433.33333333333
111.97009365136854,99.65550783877475,77.23288663527704,20466.666666666664
111.86376571635536,99.62314378848242,77.0662027215812,20500.0
111.87134096062668,99.43782209853636,77.27236652236654,20533.333333333336
111.80418585398664,99.6058622652248,77.16220830961865,20566.666666666668
111.6492991135848,99.4512987012987,77.05364873222015,20600.0
111.72843228200372,99.46866625438057,77.33987837559266,20633.33333333333
111.64194937234151,99.39329805996472,77.01942628903413,20666.666666666668
111.74157390228821,99.46559987631416,77.28135951350238,20700.0
111.42608182331504,99.29890662696987,76.86150608284996,20733.333333333336
111.68388894569996,99.44403824521936,77.31526740975559,20766.666666666664
111.59676094656332,99.28094040347004,77.14860633437709,20800.0
111.52955576169865,99.40896206967636,77.05359719645432,20833.33333333333
111.86701195629766,99.37538651824366,77.46771284271284,20866.666666666668
111.54669140383429,99.36989795918369,77.16800659657801,20900.0
111.722866419295,99.39654195011336,77.3402133580705,20933.33333333333
111.5717120181406,99.43679138321995,77.1607658214801,20966.666666666664
111.60603483817768,99.42766955266954,77.16813543599257,21000.0
111.99503285559062,99.53008744243805,77.6349148859109,21033.333333333336
111.67932467532472,99.51862337662338,77.16244155844156,21066.666666666668
111.74817048031332,99.52540713254999,77.42460317460316,21100.0
111.58634817563387,99.48551844980415,77.21884662956091,21133.33333333333
111.71668212739641,99.47162956091528,77.48046794475366,21166.666666666668
111.74487219130077,99.45967326324468,77.51350237064524,21200.0
111.84044155844157,99.75696103896105,77.48280519480521,21233.333333333336
111.92828571428572,99.77548051948051,77.61802597402598,21266.666666666664
111.57774132229254,99.51938650626249,77.22690935603991,21300.0
111.94393157043758,99.6186303656183,77.57474052052365,21333.33333333333
111.73539953615857,99.74994729074423,77.1813725490196,21366.666666666668
111.5521169645904,99.60104470168257,77.08990209202824,21400.0
111.77940332759607,99.60530433422,77.45798779533719,21433.33333333333
111.68061857820894,99.65785218797268,77.12530642048714,21466.666666666664
111.91268691467891,99.63056863455269,77.4312360945827,21500.0
111.66965574108431,99.47582972582971,77.14857761286329,21533.333333333336
111.76376004947431,99.49644403215832,77.4023654916512,21566.666666666668
111.76048752834468,99.50703463203465,77.41331684188826,21600.0
111.61162646876932,99.5657081014224,77.11667697381979,21633.33333333333
111.76811482168623,99.5269016697588,77.37636569779427,21666.666666666668
111.42261690878293,99.41350546686516,77.04578820389098,21700.0
111.56839997946716,99.41073353523949,77.2113597864586,21733.333333333336
111.39112468559108,99.4209486166008,76.99553411015863,21766.666666666664
111.36284071659568,99.44394538268057,76.98100713515734,21800.0
112.13016321809536,99.845726770338,77.77146896285824,21833.33333333333
111.54790249433105,99.58614203257059,77.10430839002267,21866.666666666668
111.80185822083055,99.75889328063242,77.53695908834248,21900.0
111.62258097633593,99.76702941327449,77.32233971562036,21933.33333333333
111.83500824572252,99.50842609771179,77.43777056277055,21966.666666666664
111.82482993197279,99.53496701710985,77.40976087404657,22000.0
111.51671237129403,99.37463134475088,76.95172556527137,22033.333333333336
111.68427588347906,99.42290577947948,77.06824649454131,22066.66666666667
111.60086451579303,99.39340676509649,76.81097830898628,22100.0
111.79558338486908,99.58317872603588,77.30431869717583,22133.33333333333
111.79815801728151,99.72737620944791,77.3118694054949,22166.66666666667
111.77127852227451,99.75130646246186,77.33817974853831,22200.0
111.79857142857144,99.61057142857143,77.32085714285716,22233.333333333336
111.71757127334816,99.72918714751384,77.32728824959902,22266.666666666664
111.8702077922078,99.63361038961041,77.61620779220779,22300.0
111.45044155844157,99.65675324675324,77.36106493506496,22333.33333333333
111.33057616986187,99.24933003504431,77.38589981447123,22366.66666666667
111.34227478870336,99.23314780457638,77.40746753246752,22400.0
111.50117647058822,99.4276862745098,77.26169934640522,22433.33333333333
111.6098742527314,99.52589672232529,77.50018037518038,22466.666666666664
111.4379365654266,99.38526413825218,77.10575878304962,22500.0
111.46635182998821,99.4420460961963,77.28109439967147,22533.333333333336
111.47258297258296,99.55011853226135,77.26272933415791,22566.66666666667
111.4623531230674,99.56331168831169,77.23698721913006,22600.0
111.61204532519272,99.4379883065142,77.18414653076006,22633.33333333333
111.46310860454287,99.43064107207529,77.03906452113624,22666.66666666667
111.43472995258708,99.24443413729128,77.05630282415996,22700.0
111.52514616857245,99.37408806333107,77.02535313292285,22733.333333333336
111.63944356039221,99.36789692520918,77.44030080591345,22766.666666666664
111.60109850623684,99.38329654535187,77.50862378727992,22800.0
111.29823562891292,99.48300305272416,76.95612355771719,22833.33333333333
111.35508142651001,99.29901051329622,77.10000515357656,22866.66666666667
111.36906917783408,99.44986288611786,77.05624256221866,22900.0
111.59370310963936,99.36912091892172,77.22015832772804,22933.33333333333
111.36666321726082,99.40934961452886,76.90363222434935,22966.666666666664
111.45555040197895,99.55264378478664,77.06712533498248,23000.0
111.6705576169862,99.5343228200371,77.36188414759846,23033.333333333336
111.46415687487116,99.511260564832,77.12208822923108,23066.66666666667
111.66478561121416,99.47588126159556,77.35706555349412,23100.0
111.57787054215623,99.4172335600907,77.18774479488766,23133.33333333333
111.92836396350084,99.7774579102943,77.6895771751703,23166.66666666667
111.68488455988457,99.48812100597814,77.40695217480932,23200.0
111.7740984115486,99.6326124075128,77.34105137889999,23233.333333333336
111.97664935064935,99.54122077922077,77.45181818181818,23266.666666666664
111.70665806451612,99.85086451612905,77.28632258064516,23300.0
112.03982381137452,99.93501748931207,77.68400051820184,23333.33333333333
111.81833828821779,99.77859489907681,77.17670682730923,23366.66666666667
111.81043655140041,99.80751577739531,77.11581390497051,23400.0
112.04593859308201,99.87340329058168,77.63674051042881,23433.33333333333
111.7286724071456,99.94358051664312,77.53872252923789,23466.666666666664
111.92551085978668,99.88376815319369,77.75758899884333,23500.0
111.591218305504,99.5285250463822,77.21091012162441,23533.333333333336
111.70815295815297,99.58838383838385,77.4138837353123,23566.66666666667
111.89540539142132,99.7322916127697,77.52561183836085,23600.0
111.67103896103895,99.58664935064935,77.13340259740261,23633.33333333333
111.86002597402596,99.56153246753249,77.37262337662337,23666.66666666667
111.73072727272728,99.52511688311691,77.11493506493507,23700.0
112.2310019297971,99.57964324831792,77.6331820789652,23733.333333333336
111.85523913837166,99.63711990820423,77.25541125541125,23766.666666666664
111.78504869149802,99.59054518728507,77.15969761398536,23800.0
111.96724560579979,99.6024096385542,77.51807228915663,23833.33333333333
111.79703228498407,99.70815730454285,77.32055494706097,23866.66666666667
112.05189384990943,99.62920964905372,77.33931805653991,23900.0
111.96083116883119,99.91706493506494,77.37716883116883,23933.33333333333
112.074297188755,99.78263704167318,77.42799770510615,23966.666666666664
112.24832425638876,99.91540113112694,77.57381126937578,24000.0
111.95410212277682,99.76545141605379,77.30099619256245,24033.333333333336
112.23825974025976,99.97228571428572,77.65342857142858,24066.66666666667
112.18717419354843,100.23323870967742,77.66451612903225,24100.0
112.61003821656051,100.52777070063696,78.17421656050956,24133.33333333333
112.19012820512822,100.20276923076922,77.62289743589744,24166.66666666667
112.18423076923077,100.19220512820513,77.65653846153846,24200.0
112.31672258064516,99.88196129032256,77.7402064516129,24233.333333333336
112.23764027904156,100.38370741077749,78.05032352643819,24266.666666666664
112.47920438607672,100.25668749203108,78.19245186790769,24300.0
112.1277655151173,100.17203942302756,77.73694882192906,24333.33333333333
112.44787157287158,100.20480313337455,78.09461966604823,24366.66666666667
112.48971861471857,100.20624613481756,78.09580498866212,24400.0
112.0199443413729,99.88332302618015,77.50386518243661,24433.33333333333
112.14509894867037,99.92321170892599,77.77380952380952,24466.666666666664
112.10792567116678,100.12424926851804,77.78473897643859,24500.0
112.29507942256944,100.08234594091171,77.8869715941429,24533.333333333336
112.08656283955088,100.08767527293422,77.68381021369069,24566.66666666667
112.07629223366274,100.08943446991256,77.65408495886584,24600.0
112.12248366013071,99.89511111111106,77.5679477124183,24633.33333333333
111.95633766233769,99.96319480519482,77.4084155844156,24666.66666666667
112.32776859070269,100.04525290705305,77.78499619392603,24700.0
111.8002077922078,100.05293506493507,77.54387012987013,24733.333333333336
112.09807792207792,99.93272727272728,77.79719480519479,24766.666666666664
112.15703896103895,99.90153246753248,77.80285714285716,24800.0
112.07918652188631,99.95305054292628,77.68489440929095,24833.33333333333
112.14976623376623,99.83641558441559,77.80651948051948,24866.66666666667
111.94446753246756,99.93327272727274,77.52407792207792,24900.0
112.11688311688313,99.86711688311688,77.68075324675327,24933.33333333333
111.95945454545456,99.8954025974026,77.48137662337663,24966.666666666664
112.05562896748285,100.20792848814614,77.59600984583496,25000.0
112.20072548257544,100.17341624562764,77.77100660707345,25033.333333333336
111.93904516129032,100.00985806451612,77.59354838709677,25066.66666666667
111.85184516129033,99.69558709677419,77.54216774193549,25100.0
111.73105408647578,99.79598915141085,77.26678141135972,25133.33333333333
112.06840171780412,99.83838671288868,77.69408081957883,25166.66666666667
112.26415584415585,99.99322077922078,77.7664935064935,25200.0
111.85025974025974,100.18425974025976,77.31781818181818,25233.333333333336
112.22149677419355,100.2304,77.90392258064516,25266.666666666664
111.97835497835493,99.9623950346842,77.31353987378084,25300.0
112.28954838709677,100.07378064516128,77.75829677419354,25333.33333333333
112.12841290322581,100.0844129032258,77.57643870967742,25366.66666666667
112.12526451612905,100.0776516129032,77.59514838709677,25400.0
112.23612987012987,99.89189610389612,77.59153246753247,25433.33333333333
112.21125161290323,99.92020645161293,77.67504516129033,25466.666666666664
112.20339288009257,99.78696825600822,77.73450713275929,25500.0
112.17478123728122,100.05898962148962,77.89171245421245,25533.333333333336
112.22331603581604,100.06868131868131,78.05929487179486,25566.66666666667
112.23913817663818,100.05957468457468,78.07359076109077,25600.0
112.06990231990231,100.02831196581195,77.82893264143264,25633.33333333333
112.3547012987013,99.7703896103896,77.76514285714286,25666.66666666667
112.09062222917645,99.9731393104887,77.56245762269859,25700.0
112.21327272727274,99.8077142857143,77.59184415584416,25733.333333333336
112.35470085470085,100.16321697044589,77.85794459890845,25766.666666666664
112.31734680658116,100.13698665630262,77.62515869931337,25800.0
112.58899701369579,100.23478529502628,77.99827515188959,25833.33333333333
112.38634023272577,100.2790907218618,77.8602873030584,25866.66666666667
112.24510967741936,100.00087741935484,77.72549677419354,25900.0
111.91679732682172,99.87382084564966,77.56249839352269,25933.33333333333
112.0323351754273,99.90001285181852,77.77912864670353,25966.666666666664
111.96235835877268,99.73280902364569,77.57838774771045,26000.0
111.80357142857142,99.98317357245928,77.60291692434551,26033.333333333336
112.12802580645165,100.10384516129032,77.78402580645161,26066.66666666667
111.6921146582501,99.77293423707764,77.336291198841,26100.0
112.20961316026218,99.8023133273358,77.92276057062074,26133.33333333333
111.94073056573058,100.00389194139194,77.96565934065934,26166.66666666667
111.85844017094016,100.05051892551892,77.8857091982092,26200.0
111.92831272313343,99.60234387126819,77.73963884720857,26233.333333333336
111.77337403632224,99.7078956899674,77.49482589124024,26266.666666666664
112.0101705523392,99.68320033380274,77.55053982162416,26300.0
111.86547317224607,99.67995550266464,77.45027681481866,26333.33333333333
112.0092129032258,99.70185806451613,77.68149677419355,26366.66666666667
111.92072727272728,99.5664155844156,77.4372987012987,26400.0
111.81657784446628,99.83551508252701,77.32560666425208,26433.33333333333
111.981994101516,99.83225539400836,77.53588244424897,26466.666666666664
111.9068660423242,99.80255600972731,77.41051378899985,26500.0
111.99824080302167,99.769157137683,77.539737155275,26533.333333333336
111.8965428608148,99.90661868654415,77.55818018249582,26566.66666666667
111.81564650488951,99.75278108345837,77.29355306048531,26600.0
112.16995244827145,99.78917876879578,77.86670093818276,26633.33333333333
111.9547609794015,99.72325430755279,77.42477004793365,26666.66666666667
112.04738064516128,99.58492903225807,77.56503225806452,26700.0
111.71396992674464,99.49258450070684,77.25256393779718,26733.333333333336
112.2013108854903,99.7806708649274,77.85102171957331,26766.666666666664
112.11654193548388,99.62108387096774,77.65432258064516,26800.0
112.02414820572612,99.73766031869414,77.47174504469491,26833.33333333333
112.23548387096771,99.8763870967742,77.93501935483872,26866.66666666667
112.05976774193549,99.88064516129032,77.76769032258065,26900.0
112.06542298225159,99.81697111024744,77.72828086539707,26933.33333333333
111.99803870967743,100.02652903225807,77.69545806451613,26966.666666666664
111.984,100.03303225806452,77.64557419354837,27000.0
112.05546844878548,99.87536306387354,77.77658398663411,27033.333333333336
112.08343225806452,100.0739870967742,77.6553806451613,27066.66666666667
112.09823930086107,99.90651587199586,77.88623570235187,27100.0
111.60477419354838,99.8640516129032,77.33050322580645,27133.33333333333
111.99090091247913,99.88574733324764,77.81537077496466,27166.66666666667
111.9817504176841,99.90322580645164,77.81094974938955,27200.0
111.55535074244752,99.79923195084486,77.37107014848951,27233.333333333336
111.82296466973888,99.74539170506912,77.59690220174092,27266.666666666664
111.84287366662384,99.89718545174142,77.5227348669837,27300.0
111.88374244955659,99.88867754787302,77.67158462922504,27333.33333333333
111.96296774193549,100.06771612903226,77.5890064516129,27366.66666666667
111.95870967741936,100.06830967741936,77.56265806451613,27400.0
112.14005161290319,100.07321290322581,77.82361290322581,27433.33333333333
111.92399999999999,99.93007792207793,77.54651948051948,27466.666666666664
112.19865806451612,100.08503225806452,77.90789677419355,27500.0
111.91561049392374,99.73791268971992,77.37336358420696,27533.333333333336
112.23083116883116,99.9135064935065,77.85922077922078,27566.66666666667
112.24023376623377,99.92254545454546,77.86992207792208,27600.0
111.7610337869302,99.80131422362496,77.42412169503801,27633.33333333333
112.22228571428572,99.87077922077923,77.73810389610391,27666.66666666667
111.87954674807264,99.800796812749,77.31603456304651,27700.0
111.76168055052516,99.49966368293062,77.19995343302115,27733.333333333336
111.79045058883769,99.7847158218126,77.40033282130057,27766.666666666664
111.7905785970302,99.79339477726576,77.3846902201741,27800.0
111.84648303765951,99.51774042950512,77.32858699035171,27833.33333333333
111.77571241830064,99.40666666666668,77.00248366013072,27866.66666666667
112.074441557078,99.59051893849907,77.3276635955587,27900.0
111.91242871650653,99.64021040022915,77.30617399682316,27933.33333333333
112.10011286977978,99.68404336299449,77.47835787594825,27966.666666666664
112.10423512230741,99.7656078860898,77.60986804360299,28000.0
111.83955088735964,99.77055414704814,77.44805194805194,28033.333333333336
112.1569565892275,99.6588710094686,77.69692657939669,28066.66666666667
111.80801126584257,99.75439420017729,77.25397694674803,28100.0
112.355030511657,99.91962655818077,77.7944505293903,28133.33333333333
112.08574025974026,99.81761038961041,77.50916883116884,28166.66666666667
112.26258279872737,99.95655348667394,77.60363532050279,28200.0
112.139159491068,99.79665852718159,77.78586299961444,28233.333333333336
112.05128205128204,100.09266890516892,77.82005494505493,28266.666666666664
112.0532449317863,99.85411194695908,77.87800586510265,28300.0
111.95175315568022,99.85446895320669,77.64842534744358,28333.33333333333
111.91138425066995,99.4709853638425,77.46861471861472,28366.66666666667
111.89651618223046,99.49688208616779,77.42004225932797,28400.0
111.95907279971024,99.60640554664455,77.29722667770476,28433.33333333333
112.05691519635742,99.6436591297149,77.61077766854659,28466.666666666664
111.92021591055132,99.83691042282484,77.60478087649402,28500.0
112.08428387096774,99.68010322580645,77.70198709677419,28533.333333333336
111.76856774193548,99.68921290322581,77.30627096774194,28566.66666666667
111.77809032258064,99.70069677419356,77.28993548387095,28600.0
112.33187096774193,99.98051612903221,77.85821935483871,28633.33333333333
112.22531612903224,100.01241290322581,77.54144516129033,28666.66666666667
112.27980308330095,99.82427775618605,77.68799067236688,28700.0
112.21077775152901,99.91479644066463,77.45423524162008,28733.333333333336
112.4090909090909,99.995905700725,77.76881552182756,28766.666666666664
112.41313305168728,100.00020862671465,77.77650863193031,28800.0
112.3281437438064,100.00325979241642,77.55385177071923,28833.33333333333
112.22547332185886,99.65508788400356,77.44820841808794,28866.66666666667
112.18554838709677,99.92771612903226,77.60818064516128,28900.0
112.21498982944763,99.59103948260574,77.5039899859177,28933.33333333333
112.17150967741935,99.84750967741935,77.89434838709677,28966.666666666664
112.00213340187635,99.69404960801953,77.78252152679605,29000.0
111.85122307411464,99.61881291399365,77.36280185677775,29033.333333333336
111.86478381056692,99.58757106347471,77.27283158608459,29066.66666666667
112.18549677419355,99.87218064516131,77.91783225806452,29100.0
111.99628387096772,99.93063225806452,77.69476129032256,29133.33333333333
112.09576369996113,99.7064904780412,77.71369348361186,29166.66666666667
112.12822904521308,99.69646327244465,77.73760849851017,29200.0
111.98415483870969,99.87145806451612,77.61824516129032,29233.333333333336
112.03179539904896,99.769772522812,77.78779077239429,29266.666666666664
111.92406995395042,99.6482899570549,77.46714440937549,29300.0
112.04768024675491,99.82310756972113,77.83143554813006,29333.33333333333
112.0581935483871,100.02923870967741,77.69914838709677,29366.66666666667
111.8466006939982,99.9024289937026,77.55604678061945,29400.0
112.011926487598,99.88726384783443,77.81390566765197,29433.33333333333
111.83577946279398,99.79928029816222,77.57270273743734,29466.666666666664
112.17092918647987,99.64444158848477,77.83796427194447,29500.0
111.93734193548387,99.8389935483871,77.44645161290323,29533.333333333336
111.94867096774193,99.46859354838708,77.51003870967742,29566.66666666667
111.96472727272727,99.39051948051949,77.41836363636364,29600.0
111.8586433486832,99.6125368655249,77.28682671909762,29633.33333333333
111.91423376623379,99.42340259740259,77.36963636363637,29666.66666666667
111.99739216606686,99.60387002555677,77.23118447817242,29700.0
112.30991155046827,99.83259625390221,77.6571540062435,29733.333333333336
112.02751423149904,99.61395741092136,77.11588129875607,29766.666666666664
111.84765204609288,99.47636296821273,76.97007638396724,29800.0
111.8995130588756,99.54602505012629,77.37905892768794,29833.33333333333
111.6859057277384,99.70238526413824,77.2941739535365,29866.66666666667
111.72428365285508,99.53468357039783,77.41527520098948,29900.0
111.68878431372549,99.40891503267972,77.04107189542485,29933.33333333333
112.10794838709677,99.55687741935483,77.75310967741936,29966.666666666664
112.0468509984639,99.57913466461856,77.86193036354327,30000.0
111.87274129289294,99.71335303945507,77.49651715717773,30033.333333333336
112.2465863453815,99.64956600595931,77.64047156367405,30066.66666666667
111.96730497365377,99.76550571905923,77.39858629996144,30100.0
112.20064259092665,99.63621642462408,77.66654671636036,30133.33333333333
112.15156129032258,99.78095483870968,77.57793548387096,30166.66666666667
112.14126451612906,99.77793548387095,77.56289032258064,30200.0
112.1098316411772,99.62107698239299,77.65055905410615,30233.333333333336
111.95622703989237,99.58819268381019,77.4069177834118,30266.666666666664
112.27052903225807,99.89445161290324,77.78072258064516,30300.0
111.92727790138149,99.6571376830341,77.18466394163605,30333.33333333333
112.19809106556092,99.71431179262504,77.44213216502372,30366.66666666667
112.14847105086149,99.72866973663784,77.56687535571997,30400.0
111.8660260917116,99.56828893576024,77.12764627763457,30433.33333333333
112.42607792207792,99.87444155844156,77.86838961038961,30466.666666666664
112.05594805194806,99.92711688311691,77.43425974025975,30500.0
112.00607957779272,99.71172453044964,77.54105655300874,30533.333333333336
111.57745825602969,99.55581323438466,77.20841063698207,30566.66666666667
111.58420944135227,99.55895691609976,77.21789321789322,30600.0
111.83183614804169,99.69503618910734,77.69942508084802,30633.33333333333
111.63888888888887,99.67544802867384,77.4510752688172,30666.66666666667
111.8351510496672,99.62247823860727,77.68883768561187,30700.0
111.76213517665131,99.5877368151562,77.50809011776754,30733.333333333336
112.03649032258065,99.54694193548387,77.59845161290322,30766.666666666664
112.1743991774836,99.69893329906179,77.81909780233903,30800.0
111.87895545314899,99.6047363031234,77.45409626216077,30833.33333333333
112.21945765325792,99.75267960416402,77.68770080966456,30866.66666666667
112.04237730141344,99.684165232358,77.17913211286705,30900.0
112.19743249225321,99.61802463349218,77.4724891284535,30933.33333333333
111.76018300653593,99.4836862745098,77.01406535947713,30966.666666666664
111.67696337794376,99.49390496939516,77.1222896566034,31000.0
111.73830169518007,99.31112152696406,77.19558367835845,31033.333333333336
111.71571428571428,99.61444155844157,77.15763636363639,31066.66666666667
111.80263362135872,99.4314948000207,77.35615977647848,31100.0
111.74082663368375,99.58560090702947,77.30331374974232,31133.33333333333
111.9768049155146,99.72485919098824,77.63174603174603,31166.66666666667
111.98858166922683,99.74462365591398,77.57009728622631,31200.0
111.55225604435093,99.45110620604693,77.1019454853447,31233.333333333336
111.93241167434715,99.73609831029188,77.59879672299026,31266.666666666664
111.63447660334057,99.50253729440264,77.25908453397933,31300.0
111.70028161802357,99.35591397849464,77.29605734767027,31333.33333333333
111.4959105918212,99.33149606299213,77.15394970789941,31366.66666666667
111.50157480314958,99.32156464312928,77.15742951485903,31400.0
111.88860941430113,99.37285046968842,77.40955289769519,31433.33333333333
111.71786492374727,99.54935677974892,77.00184147733168,31466.666666666664
111.88035971964544,99.55318491032776,77.36734693877553,31500.0
111.67595186222636,99.51792198360826,77.0296451914099,31533.333333333336
111.89133683776541,99.52672129457844,77.46529066171922,31566.66666666667
111.80599679205255,99.37064728100584,77.30299580897191,31600.0
111.73787012987013,99.58742857142856,77.10841558441558,31633.33333333333
112.01226263776064,99.78982770217829,77.60599161794379,31666.66666666667
111.69704700061844,99.67277365491651,77.22688620902906,31700.0
112.17409073383884,99.99591312170672,77.839763526539,31733.333333333336
111.87253583070316,99.93245201014123,77.49805970921508,31766.666666666664
111.78212987012985,99.76488311688313,77.28885714285715,31800.0
111.83745781777277,99.82991614684528,77.6265466816648,31833.33333333333
111.79476605456999,99.72097727980079,77.28807448905486,31866.66666666667
112.15808596165738,99.7084879406308,77.66955266955266,31900.0
111.98851948051949,99.62283116883115,77.29828571428571,31933.33333333333
112.19651948051948,99.57012987012988,77.55181818181819,31966.666666666664
112.18036363636364,99.57594805194807,77.59971428571428,32000.0
111.81366039111528,99.43486185975054,76.95664401218654,32033.33333333333
111.9721375934172,99.43165898497513,77.16295601906101,32066.66666666667
111.88563403942568,99.47791164658636,76.87560700317611,32100.0
112.00538100112871,99.53424154132871,77.05034517153581,32133.33333333333
111.83752001469931,99.55594928734548,76.97984093235688,32166.666666666664
111.79693939155315,99.56629130902695,76.94293513924981,32200.000000000004
112.18846628343441,99.8975772370528,77.4149145602016,32233.333333333336
111.91714104996838,99.846853257432,77.07619122917984,32266.666666666664
111.99657389837655,99.81077377187435,77.24269976807928,32300.0
111.85242982823627,99.96784666945958,77.07894323418519,32333.333333333336
112.31158212272764,99.992723135138,77.48368659204574,32366.66666666667
112.36482231219074,99.98102722870523,77.47479558625069,32400.0
112.07601068286553,100.2421711353163,77.45106304985337,32433.33333333333
112.13216502373129,100.0676211338862,77.59860220101183,32466.66666666667
111.94319762710975,100.01834790140957,77.14192718586766,32500.0
111.97983870967742,99.85091187012439,77.25793274298968,32533.33333333333
111.8246099515075,99.91368859371704,76.8918669618385,32566.66666666667
111.83035526038373,99.90541324056505,76.91901222854733,32600.0
112.08478357875948,100.0401343937843,77.36498936924167,32633.33333333333
111.93269811271229,100.01721920361184,77.14751817728431,32666.666666666664
112.06627818463396,99.99965876578207,77.43048009029583,32700.000000000004
111.859477124183,99.80439595192915,77.03673835125448,32733.333333333336
112.09297758692921,99.95423125261836,77.35879241726016,32766.666666666664
112.13809174696271,99.92461772098869,77.37102010892333,32800.0
112.0045513482046,99.94167923579687,77.08816914080072,32833.333333333336
112.55613741097612,100.1701927105153,77.90244030163385,32866.666666666664
111.96850145680763,99.93099194162272,77.19741711945822,32900.0
112.32057897382977,99.87764282501124,77.38038157233206,32933.33333333333
112.05252382077327,99.94608499356907,77.26639892904953,32966.66666666667
112.04404546289734,99.94726618893877,77.24862850093183,33000.0
112.03764705882351,99.81312418300655,77.38245751633987,33033.33333333333
111.90485714285715,99.97342857142857,77.34412987012988,33066.66666666667
112.07644444444445,99.80088888888888,77.33108496732025,33100.0
111.95023376623377,99.84802597402596,77.27766233766232,33133.333333333336
111.984,99.80109803921567,77.25464052287582,33166.666666666664
112.009045751634,99.7821176470588,77.3112679738562,33200.0
112.14454901960785,100.0796862745098,77.33069281045749,33233.333333333336
112.37328104575165,100.02154248366013,77.591477124183,33266.666666666664
112.22645751633983,99.98237908496729,77.46146405228758,33300.0
112.41971808803845,99.77993017822928,77.77113683492139,33333.333333333336
112.22026143790848,100.09349019607842,77.60779084967321,33366.666666666664
112.17469281045751,100.0757385620915,77.587477124183,33400.0
112.15087362966436,99.9025336562248,77.69226362523763,33433.33333333333
112.14677124183004,100.08039215686271,77.54334640522876,33466.66666666667
112.13722886232848,99.89638830299715,77.61406660937948,33500.0
112.07398692810456,100.0710065359477,77.49003921568627,33533.33333333333
112.25301960784313,100.09040522875816,77.6033725490196,33566.66666666667
112.26101960784314,100.09950326797384,77.61205228758169,33600.0
112.18613845831587,100.25848345203184,77.49327084206115,33633.333333333336
112.22072000843347,100.1340396373603,77.48260594560405,33666.666666666664
111.85282305693363,99.99929128277815,77.28445809381317,33700.0
112.08370737853376,99.98299078667613,77.50056434889886,33733.333333333336
112.0700769555134,100.15989352730341,77.36382563778199,33766.666666666664
112.08762913767656,100.15182901117436,77.37357685009488,33800.0
112.28855290442816,99.85190434942385,77.5686012021944,33833.333333333336
112.15631372549021,99.93529411764703,77.42865359477123,33866.666666666664
112.3468679914463,99.84441662754915,77.63505971939706,33900.0
112.37434541265186,100.04393590280688,77.50646732299958,33933.33333333333
112.49837662337664,99.97431399245916,77.80485441977378,33966.66666666667
112.6504022293496,100.12611073137388,77.86721173563278,34000.0
112.2562304054413,99.88535522610128,77.26757532281204,34033.33333333333
112.49386258568468,99.8309155640576,77.49465965247887,34066.66666666667
112.37997432605906,99.72670624732565,77.26513692768506,34100.0
112.60782916270719,99.98307992820186,77.85204835814592,34133.333333333336
112.54634838845364,100.16515063883485,77.92015878857984,34166.666666666664
112.54251012145748,100.16331037383672,77.93503864556496,34200.0
112.4291587602783,99.86034682690278,77.8164136622391,34233.333333333336
112.25960314091681,99.83870967741936,77.49029074702888,34266.666666666664
112.56419987349777,99.8434798650643,77.8023402909551,34300.0
112.230538285775,99.86362187151285,77.27804346670918,34333.333333333336
112.35062968276743,99.81869387321323,77.55940804506082,34366.666666666664
112.47659495647112,99.93273530734831,77.74570664973143,34400.0
112.03551110052658,99.74422481543225,77.23955439125717,34433.33333333333
112.12022981235503,99.53312776723592,77.30663609529833,34466.66666666667
112.2350569259962,99.89231499051232,77.4076797385621,34500.0
112.40114379084969,99.92499472907444,77.53138836179633,34533.33333333333
112.20675205566096,99.93250579801813,77.24926207041956,34566.66666666667
112.19573582121019,99.950743200506,77.22543748682268,34600.0
112.38079801813198,99.96753109846088,77.48347564832385,34633.333333333336
112.1651716017041,99.80897568204071,77.15450768701542,34666.666666666664
112.34005451033316,99.8396443597682,77.33650869254585,34700.0
112.12529438226031,99.82702230689848,77.1728189251409,34733.333333333336
112.44727580640894,99.86248048477152,77.51488449630864,34766.666666666664
112.57896941767908,100.07430875576037,77.8034405111018,34800.0
112.3454790823212,100.23352120875342,77.31465163663306,34833.333333333336
112.48521505376344,100.00245098039215,77.48853573687539,34866.666666666664
112.35418412232927,100.17247067448679,77.42393695014663,34900.0
112.50777461522243,99.90984081804764,77.72635989879822,34933.33333333333
112.17699183832102,99.98795180722892,77.59396294856845,34966.66666666667
112.11680269464956,100.00342013214147,77.55854385283068,35000.0
112.20563298947424,99.84290101582802,77.6012809407565,35033.33333333333
112.29116592873709,99.96616065781151,77.55191861690912,35066.66666666667
112.36872759856631,99.93682795698923,77.72066729917773,35100.0
112.00695592828829,99.71262829094157,77.36926792135864,35133.333333333336
112.44941348973607,100.02516233766234,77.80037704231253,35166.666666666664
112.29059093516923,99.87471965785221,77.71757158504145,35200.0
112.1490626309175,99.98261416003349,77.4955749895266,35233.333333333336
112.25913560124086,99.81607865818391,77.58023555391976,35266.666666666664
111.79915852980871,99.82911275171335,77.12132518324469,35300.0
112.07213357677756,99.75009922997542,77.30266465560584,35333.333333333336
111.89749849069482,99.75950862272622,77.25159461374912,35366.666666666664
111.86786361130798,99.77922146100744,77.2864267527627,35400.0
112.39263124604679,99.83449293695972,77.62078325954037,35433.33333333333
112.22142515542801,99.87241617514212,77.316940326266,35466.66666666667
112.31301391524352,99.82352941176471,77.68796120598778,35500.0
111.90621308764472,99.64577263301572,77.2698637688007,35533.33333333333
112.03246890153908,99.45495994096564,77.41458465106473,35566.66666666667
111.96252371916508,99.48848302761965,77.39365907653384,35600.0
112.01362758328699,99.57423725225584,77.25302320658358,35633.333333333336
112.16864714233135,99.65003417634995,77.51238235448761,35666.666666666664
111.99610915400388,99.67180188232821,77.28792260371208,35700.0
112.24018087175982,99.63788842736211,77.74207371575794,35733.333333333336
111.87238165060744,99.54925115207372,77.21635421030581,35766.666666666664
111.95350232097219,99.70351536014186,77.35649089865956,35800.0
112.1543837688416,99.65180201324779,77.6416575392479,35833.333333333336
112.00099097689457,99.69962968758148,77.46599384551192,35866.666666666664
112.25637615396653,99.69417931466124,77.58264225734105,35900.0
111.97270126256664,99.73205239257685,77.25760558574166,35933.33333333333
112.67020512820513,100.46933333333332,78.28323076923077,35966.66666666667
112.657641025641,100.48051282051279,78.312,36000.0
112.26005959321155,100.15701515740379,77.68894934577017,36033.33333333333
112.64353846153843,100.40597435897436,78.23894871794872,36066.66666666667
112.21600102406552,100.1894777265745,77.75757808499743,36100.0
112.52022678516704,100.33154561242209,78.15113903360916,36133.333333333336
112.02917362806835,99.93800282740007,77.5131988176327,36166.66666666666
112.20185806451613,100.0779870967742,77.61649032258065,36200.0
112.24701195219124,99.90420254466007,77.80783960930471,36233.333333333336
111.95800025703636,99.93083151265905,77.49620871353297,36266.66666666666
112.26790277995096,99.82506649976528,77.5999843529964,36300.0
111.97682232196762,99.75328766044571,77.18857127857838,36333.333333333336
112.27648255359098,99.87093829864914,77.57685286600949,36366.66666666666
112.36116382036684,99.86379928315412,77.47591187012439,36400.0
112.28731921148649,100.01548678373626,77.44210830249102,36433.33333333333
112.45868244658571,99.95404796816086,77.75500104733976,36466.66666666667
112.29906786761627,99.96826560536238,77.59219208211144,36500.0
112.61464850938536,100.05215836794784,77.99166622850835,36533.33333333333
112.34541265186428,99.93577188940093,77.69226539589442,36566.66666666667
112.45954139137191,100.16426998315843,77.97087705661355,36600.0
112.46111242355042,100.01315064178284,77.8937449142977,36633.333333333336
112.43024044228865,100.14317008292913,78.00871016533668,36666.66666666666
112.68091721725612,100.23588547739344,78.33118279569892,36700.0
112.18965161290322,100.10436129032259,77.85772903225806,36733.333333333336
112.43448889819858,99.92367511520737,77.75204231252619,36766.66666666666
112.36169091292429,99.79691123761332,77.57197448872022,36800.0
112.10130718954248,99.85549757537424,77.36925469112376,36833.333333333336
112.18059855521156,99.62099441666004,77.37945542589506,36866.66666666666
112.15665190807506,99.77656546489565,77.37940122285472,36900.0
112.35887096774192,99.9397517804776,77.70483347297862,36933.33333333333
112.40517377359484,100.07074504442923,77.5822072664178,36966.66666666667
112.14898271136411,99.80945604048073,77.27427261227069,37000.0
112.42291271347248,99.81567573265863,77.58256904912503,37033.33333333333
112.44986449864498,99.83649503161699,77.2029066369095,37066.66666666667
112.52258355916894,99.89287422285987,77.44686221372021,37100.0
112.20721864994309,99.69937286655554,77.19666058056151,37133.333333333336
112.40695248526572,99.78667918426954,77.91013404266415,37166.66666666666
112.4390288426433,99.7929640640484,77.90298857768738,37200.0
111.9605389299132,99.9954139137194,77.55719652804768,37233.333333333336
112.16437177280552,99.81450477233612,77.68776404318572,37266.66666666666
111.99707922599487,99.83059510770352,77.45498878631409,37300.0
112.35219417679096,99.94163699204022,77.77542417260159,37333.333333333336
112.15142857142858,99.93677922077923,77.65106493506494,37366.66666666666
112.17145806451613,99.99938064516131,77.78072258064516,37400.0
112.51903096255992,100.13504339940408,78.02039124238891,37433.33333333333
112.18579604578564,99.96420395421437,77.593912591051,37466.66666666667
112.42702913631634,99.9000780437045,77.8555411030177,37500.0
112.13431791682859,99.83933151962692,77.50869283585956,37533.33333333333
112.34491514444876,99.8358077471175,77.66993133825625,37566.66666666667
112.37427127866304,99.83370902966705,77.67591656950381,37600.0
112.19528436325949,99.83166213240057,77.49003756963337,37633.333333333336
112.35766290970331,99.80347195232542,77.91895323228397,37666.66666666666
112.0455849371512,99.78712251603821,77.45564074479736,37700.0
112.42913631633715,99.9873048907388,77.93675858480748,37733.333333333336
112.27117585848076,100.0520031217482,77.67094172736735,37766.66666666666
112.27073361082206,100.0536940686785,77.67112382934444,37800.0
112.66119890296459,100.14601018675722,77.95661486221758,37833.333333333336
112.39624303666278,100.22044306257288,77.78038606037052,37866.66666666666
112.38090530697191,100.05855879292405,77.68316857440165,37900.0
112.11761331038441,99.77650863193031,77.37292025243832,37933.33333333333
112.14286451612905,99.66299354838706,77.59019354838709,37966.66666666667
112.15176774193549,99.67112258064516,77.59868387096775,38000.0
112.14043185729929,99.66567568977207,77.34658112971366,38033.33333333333
112.2091870967742,99.65349677419356,77.61522580645162,38066.66666666667
112.20299379335523,99.77924685756012,77.40885620403692,38100.0
112.49990931467806,99.83116984065292,77.77940147687524,38133.333333333336
112.24592207792207,99.96041558441559,77.52992207792208,38166.66666666666
112.12752307933027,99.81114066656237,77.28738329943148,38200.0
112.14101960784313,99.4809150326797,77.40298039215686,38233.333333333336
112.13118952760388,99.78361877166658,77.5,38266.66666666666
112.31249179725435,99.58553166916029,77.59742236921542,38300.0
111.92593464052288,99.47171241830065,77.25503267973856,38333.333333333336
112.30354096123057,99.55072577893273,77.5422211722708,38366.66666666666
112.29899992125364,99.54411108486237,77.55597553613146,38400.0
112.08982334567028,99.52106465075993,77.33850434417408,38433.33333333333
112.21684122109352,99.60587447830538,77.58516418615639,38466.66666666667
112.19264945580734,99.74827803775172,77.5395919869604,38500.0
112.29356195919664,99.69934640522877,77.74229313857796,38533.33333333333
112.18373731531626,99.77987801672012,77.68607708081392,38566.66666666667
112.18878489931122,99.75921446974077,77.67745412482255,38600.0
112.49789632452169,99.51162975311584,77.71612288640152,38633.333333333336
112.00341234217916,99.57450717904295,77.33139092316979,38666.66666666666
112.11395741092136,99.45685747417248,77.34998945814884,38700.0
111.98648007590131,99.54319523508327,76.98579485557664,38733.333333333336
112.1230761121653,99.53159919881931,77.23194707990723,38766.66666666666
112.14845561880665,99.55537107316044,77.17884250474383,38800.0
111.97135251950243,99.59614168247944,76.95416930212944,38833.333333333336
112.29117778302755,99.74186943853847,77.43617607685646,38866.66666666666
112.35043748682268,99.87842610162345,77.3207358212102,38900.0
112.57519899455386,100.02181085043988,77.68655739421868,38933.33333333333
112.18100790257805,99.94693613162329,77.46467158958414,38966.66666666667
112.1875372457572,99.95071900505243,77.4402642829382,39000.0
112.27418069656856,99.96208713532965,77.7672792700167,39033.33333333333
112.13615753335924,99.99880813576887,77.49065941184091,39066.66666666667
112.40575204041971,99.9713434382692,77.82982251586994,39100.0
112.17168818747012,99.93092087783623,77.15234603326425,39133.333333333336
112.49742455775234,100.04214360041624,77.80593132154006,39166.66666666666
112.48449531737774,100.05600936524452,77.83368886576483,39200.0
112.21281943862587,100.03317448680352,77.4274193548387,39233.333333333336
112.35364684544628,99.88521829252493,77.71612903225807,39266.66666666666
112.31171612903226,100.05230967741936,77.66877419354839,39300.0
112.29832879906724,99.9109470138619,77.65345251975644,39333.333333333336
112.25861436950147,100.00099497276916,77.4546763720151,39366.66666666666
112.25455592794304,100.00416317553416,77.43710724759111,39400.0
112.1543837688416,99.87159025713241,77.51603817868876,39433.33333333333
112.30050795978217,100.1071952241307,77.47837243401759,39466.66666666667
112.54246000524523,100.18061893522163,77.71098872279045,39500.0
112.36522423288748,100.2228166797797,77.56548649357461,39533.33333333333
112.55010030619785,100.02866645549572,77.82784288881851,39566.66666666667
112.59178017104848,100.0097138633724,77.80614507443775,39600.0
112.1155567117586,100.21235691987512,77.65790842872009,39633.333333333336
112.28822790113114,100.02673334729786,77.67252304147466,39666.66666666666
111.94234076896616,99.86226879415736,77.20301129898651,39700.0
112.18870603081129,99.88493085861505,77.53696303696303,39733.333333333336
111.96185064935064,99.70577607875995,77.26115416841223,39766.66666666666
111.90225701717637,99.73609656472559,77.23858399664852,39800.0
112.28542510121456,99.84197381565802,77.56575003943425,39833.333333333336
111.98597933797173,99.59487666034157,77.0977229601518,39866.66666666666
112.11274509803921,99.67407231709886,77.13841450558719,39900.0
111.888862534261,99.71075795909763,76.95032152646004,39933.33333333333
111.92393101819042,99.57049111478595,77.05606740688243,39966.66666666667
111.92282856917869,99.57841824815605,77.11040239388929,40000.0
111.79720187941307,99.55035829592882,76.98585190434945,40033.33333333333
112.04100060372208,99.55736672178914,77.30482715174423,40066.66666666667
111.84548583946173,99.649298492672,77.05022688155219,40100.0
112.07210541512457,99.553770638108,77.2114864687508,40133.333333333336
111.88821488240585,99.77360236473459,77.33838838195604,40166.66666666666
111.85937540161932,99.79694126718931,77.32597352525381,40200.0
112.17683721900588,99.49452354874045,77.34251290877795,40233.333333333336
112.14872224549644,99.66372538751571,77.14576351068288,40266.66666666666
112.02561881512979,99.44565188860015,77.19998950048559,40300.0
112.07223803499895,99.57916930212946,77.09479759645794,40333.333333333336
112.06601569677404,99.45504895398588,77.16394991731633,40366.66666666666
112.07961256791874,99.45714885686537,77.17093209439064,40400.0
111.88674177228394,99.58313774578836,77.03369321441609,40433.33333333333
112.11029677419356,99.85731612903228,77.75566451612903,40466.66666666667
111.90075324675324,99.77075324675327,77.38768831168831,40500.0
112.04899880995498,99.67987789103329,77.61054483365241,40533.33333333333
111.98986796860643,100.05522744573065,77.32598367325511,40566.66666666667
111.80941176470587,99.92457516339869,77.23599999999998,40600.0
111.98905425624064,99.75449510460142,77.2967162768722,40633.333333333336
112.04916397616613,100.04205055516182,77.3376643830223,40666.66666666666
112.25470714024931,100.10410473061077,77.63709382986491,40700.0
112.05257631834527,100.06808935086752,77.30466965902828,40733.333333333336
112.37149483449294,100.23774509803921,77.48956356736242,40766.66666666666
112.38915243516762,100.2223539953616,77.55518659076532,40800.0
112.13138048741764,100.0848085523008,77.15805350480274,40833.333333333336
112.09687961205988,99.92404596247101,77.26836917562723,40866.66666666666
111.95532890575585,99.89292114695341,77.08557347670248,40900.0
112.18606367278092,99.82956462154756,77.33681214421252,40933.33333333333
112.04543537845244,99.81622917984396,77.14808665401644,40966.66666666667
112.18573205260513,99.9673202614379,77.23439443253685,41000.0
112.12373677717406,99.84324225004595,77.46045620390058,41033.33333333333
112.0470482389987,99.91691143393929,77.22582096266306,41066.66666666667
112.3360853113175,99.86300971130692,77.66256516101717,41100.0
112.14312931650393,99.95427482733984,77.39009287925697,41133.333333333336
112.1168037107316,99.87589605734767,77.49441281889098,41166.66666666666
112.12349778621126,99.87942757748259,77.5027935905545,41200.0
112.15411076711386,100.05906168135272,77.36458416024979,41233.333333333336
112.41657367554069,100.17198044529465,77.59211435251608,41266.66666666666
112.10566007779629,99.98719271784289,77.31446640734566,41300.0
112.24860416501284,99.9754438887566,77.48620041808896,41333.333333333336
112.10872959170172,99.96475351274113,77.24741340530814,41366.66666666666
112.07533539731682,99.97756079489824,77.24312667037124,41400.0
112.18977872273408,99.99902879491823,77.5888652649815,41433.33333333333
111.948,99.83796078431372,77.26627450980392,41466.66666666667
112.25726451612906,100.00701935483869,77.97563870967741,41500.0
112.07199588741808,100.18899884333634,77.99858629996145,41533.33333333333
112.23899208361358,99.99694727583172,78.05694106690122,41566.66666666667
112.24188958451906,99.99849950845966,78.03779686449009,41600.0
112.10606535947711,100.12705882352941,77.69639215686274,41633.333333333336
112.11918339713043,99.93958805301668,77.82027445772465,41666.66666666666
112.14734412283433,100.152557319224,77.9024535740222,41700.0
112.35691094619663,100.15540610183469,78.14100185528756,41733.333333333336
112.27505882352942,100.10734640522877,77.69934640522875,41766.66666666666
112.30969934640522,100.0749019607843,77.70271895424837,41800.0
112.46909803921568,100.13205228758171,77.82007843137255,41833.333333333336
112.18105356352369,99.91576178944356,77.47925943285682,41866.66666666666
112.53262745098041,99.98833986928105,77.80447058823529,41900.0
112.33362091503271,99.91430065359476,77.70271895424837,41933.33333333333
112.60094117647058,99.9232679738562,77.94449673202614,41966.66666666667
112.62441830065359,99.93351633986929,77.92930718954248,42000.0
112.10819467229125,99.774626982267,77.38681873811942,42033.33333333333
112.21016587245786,99.79902611775124,77.6749993490092,42066.66666666667
112.06723433065126,99.7886623440877,77.40996797125223,42100.0
112.4515294117647,99.92967320261437,77.75322875816994,42133.333333333336
112.34167320261436,99.95226143790848,77.65215686274509,42166.66666666666
112.2050030186104,99.80736015959265,77.44538940074023,42200.0
112.61619755429054,99.92083069787054,77.80497575374234,42233.333333333336
112.472612065354,99.92495810640972,77.67600544616674,42266.66666666666
112.60278304870334,99.84661606578115,77.76127978072951,42300.0
112.27256739375805,99.70651232380504,77.47043074257816,42333.333333333336
112.63459308454563,99.87565886569679,77.7773824583597,42366.66666666666
112.62710837022979,99.88577904279992,77.7783312249631,42400.0
112.29702839300363,99.78068852372256,77.35942420152945,42433.33333333333
112.6674045962471,99.93369175627241,77.84316360952985,42466.66666666667
112.09365566842536,99.88256293146442,77.51237630259601,42500.0
112.1781505105389,99.81166496049559,77.75509882667927,42533.33333333333
112.09171241830065,100.02658823529413,77.65163398692809,42566.66666666667
112.08007843137254,100.02687581699345,77.63534640522877,42600.0
112.3603137254902,99.93351633986929,77.84112418300653,42633.333333333336
112.24130718954248,99.96941176470587,77.72211764705881,42666.66666666666
112.39312418300652,99.96277124183004,77.79006535947713,42700.0
112.05306877066894,99.77210113793194,77.48269666432309,42733.333333333336
112.41547712418301,99.92515032679735,77.67898039215686,42766.66666666666
112.40711111111106,99.93294117647058,77.71887581699346,42800.0
112.36144578313255,100.0794025776308,77.61235792844582,42833.333333333336
112.25109588681524,99.74368060477205,77.56064782003833,42866.66666666666
112.26336179633144,99.91545435378453,77.43224225173941,42900.0
112.68068351838728,100.10557261726645,78.19607843137257,42933.33333333333
112.3003109846089,100.01033101412607,77.58755007379295,42966.66666666667
112.34487666034157,99.98147269660551,77.5946394686907,43000.0
112.5455671515918,99.88778199451824,77.7913504111322,43033.33333333333
112.42958763157206,100.08095125600441,77.69399165288607,43066.66666666667
112.59443000761215,100.02645877628159,77.90676431215057,43100.0
112.50712654539728,100.00062997086386,77.70023886395255,43133.333333333336
112.55371073160448,99.77938541007799,77.71974488720221,43166.66666666666
112.5469375922412,99.77108370229813,77.74259434956778,43200.0
112.40367383512545,99.78592135779043,77.54551444233606,43233.333333333336
112.41388161202404,99.64856711915537,77.61808367071525,43266.66666666666
111.98632194813408,99.54340607210628,77.25819628926841,43300.0
112.35889497499404,99.65669074647406,77.4404752454288,43333.333333333336
112.26366065994549,99.66656082135958,77.20864756158873,43366.66666666666
112.21864994310816,99.6738376862216,77.22238099018284,43400.0
112.3688559434614,99.58244327541313,77.39112067591266,43433.33333333333
112.0856049736968,99.69687549816679,76.95844625112917,43466.66666666667
112.29886071887032,99.49767329910141,77.15043324775354,43500.0
112.08432284980744,99.5523106546855,76.89417522464699,43533.33333333333
112.39108485499465,99.66987110633728,77.21611170784104,43566.66666666667
112.421992481203,99.66216433941999,77.2718313641246,43600.0
112.20139634801286,99.73831901181525,77.10408163265306,43633.333333333336
112.34481740064449,99.71686358754029,77.3187432867884,43666.66666666666
112.27562045357296,99.75863821138212,77.26880081300813,43700.0
112.52848185344598,99.81263616557736,77.57383495403582,43733.333333333336
112.39452149423457,99.82573462989531,77.36731494765928,43766.66666666666
112.39053616026355,99.80904936500343,77.33808916520537,43800.0
112.55364259524949,99.84906211807214,77.45318561028749,43833.333333333336
112.35562463467771,99.80862426271321,77.31725915298368,43866.66666666666
112.81336826228468,99.87714005980257,77.91717604720701,43900.0
112.22883723381823,99.83826164874552,77.56712523719166,43933.33333333333
112.41675197522116,99.99910754127623,77.90445441898312,43966.66666666667
112.34324267341343,99.8324109213578,77.73529411764707,44000.0
112.34315048556536,100.018946309968,77.54145166838666,44033.33333333333
112.51808631684791,99.98004815961471,77.78698631949406,44066.66666666667
112.45166838665293,99.97113069249292,77.55992167447276,44100.0
112.56984962006484,99.80617992454434,77.57351612731813,44133.33333333334
112.540456182473,99.93037214885956,77.36313191943445,44166.66666666666
112.64211700940538,100.05935490727457,77.5521281683405,44200.0
112.6793431750107,99.68081407787764,77.36783269148481,44233.33333333334
112.32849091053428,99.63406631208487,77.09732475986345,44266.66666666666
112.4273768886772,99.63570691434471,77.39832235188274,44300.0
112.2144417217132,99.5764702748775,77.15621670573194,44333.33333333334
112.5140906565055,99.59979889391657,77.84221110846498,44366.66666666666
112.5310523669657,99.58765314492868,77.92140985949035,44400.0
112.18798126538064,99.57505755338572,77.48461273848271,44433.33333333333
112.14613641155388,99.4057558507274,77.59434956778409,44466.66666666667
112.03013360632073,99.61020552799437,77.51888600152243,44500.0
112.18804026987141,99.49414927261226,77.49849778621126,44533.33333333333
112.12854030501093,99.58954773341732,77.342992886579,44566.66666666667
112.12019319106493,99.5967399007796,77.31884400346485,44600.0
112.43207669387226,99.85954139137192,77.80603705143153,44633.33333333334
112.1686746987952,99.66459301257318,77.37966244061212,44666.66666666666
112.25600885515496,99.5489668985874,77.4320577693443,44700.0
112.09748576850096,99.54994201981869,77.23785051655071,44733.33333333334
112.38321293429651,99.758461009235,77.4799820062978,44766.66666666666
112.23645372127343,99.61696183849884,77.4232816782627,44800.0
112.1126323475721,99.88491628853077,77.35865540082408,44833.33333333334
112.34989307880873,99.82579669326657,77.77945548427476,44866.66666666666
112.00719216736229,99.76985064440771,77.18846628343441,44900.0
112.31548415885766,99.73512350053812,77.4975457385096,44933.33333333333
112.27345561880665,99.9248366013072,77.40472802024037,44966.66666666667
112.2812302340291,99.92454670040058,77.37318153067679,45000.0
112.42275595890057,99.85044072393472,77.80858498930787,45033.33333333333
112.39482090490156,100.02442919983244,77.56318077084207,45066.66666666667
112.56448994553831,100.07203079178886,77.83805509007122,45100.0
112.49638667783829,100.0104995810641,77.64259530791789,45133.33333333334
112.70805299118551,100.17511604861002,77.9876910238356,45166.66666666666
112.60834729786345,100.01502932551321,77.81621805613742,45200.0
112.25051841352337,99.74995406462452,77.21174895661076,45233.33333333334
112.57945920303604,99.95163925785369,77.46123234239933,45266.66666666666
112.4770976141134,99.97893086774003,77.21635049683829,45300.0
112.81369892130293,99.9955895637388,77.64254211169562,45333.33333333334
112.48884106488123,100.01307189542484,77.33535256921195,45366.66666666666
112.41559062649448,100.04158031776396,77.2674159094532,45400.0
112.70944258462193,99.9282374196291,77.57011530899622,45433.33333333333
112.52377513906721,99.81017329910141,77.25240693196406,45466.66666666667
112.66199054147405,99.87775652266329,77.51254051756203,45500.0
112.70021482277123,99.90810955961331,77.26339957035447,45533.33333333333
112.62944364737764,99.9060789627504,77.58031776396196,45566.66666666667
112.6519740687603,99.88710877304851,77.64025718688559,45600.0
112.4988043998087,99.8504171316223,77.36524257399438,45633.33333333334
112.65327723532057,100.06562409039188,77.78772723664366,45666.66666666666
112.2369611812336,99.80535048027308,77.36318170993094,45700.0
112.38543568574528,99.81003413511154,77.55605832076421,45733.33333333334
112.31520732449523,99.81249503850124,77.35566669312799,45766.66666666666
112.30091820803896,99.81762853589476,77.3043317191924,45800.0
112.51880077267073,99.8496467412876,77.66338546214708,45833.33333333334
112.54203014539152,100.18329998666134,77.44169667867149,45866.66666666666
112.65027365959934,100.00252404484829,77.68205005579469,45900.0
112.3157100897039,99.94294937948187,77.22526527480088,45933.33333333333
112.64655401455977,99.99383601679152,77.67439821457037,45966.66666666667
112.65346192677612,100.00722673893404,77.68242202029863,46000.0
112.41368859371704,100.02026670883407,77.57105207674469,46033.33333333333
112.53336495888678,99.99088129875608,77.75371600253006,46066.66666666667
112.26651848323677,99.78007991320685,77.40665766981556,46100.0
112.51254480286735,99.93435062196922,77.79000632511068,46133.33333333334
112.42747206409443,99.90190807505795,77.59622074636306,46166.66666666666
112.35550792516734,99.7468180254558,77.3964171363552,46200.0
112.58662766181742,99.95994096563356,77.74338498840395,46233.33333333334
112.41115854944128,100.0212945393211,77.44594665823318,46266.66666666666
112.65306767868437,99.98221062618595,77.78684376976597,46300.0
112.06169296987088,99.66831393804136,77.20904405122481,46333.33333333334
112.35262364054934,99.78113836627769,77.56666931279933,46366.66666666666
112.37972003916276,99.77632240480536,77.56359979889392,46400.0
112.38782613316329,99.94678250704077,77.40411286465806,46433.33333333333
112.60986237313354,99.96232530952759,77.6153621340135,46466.66666666667
112.27731470455929,99.918102193644,77.30168558651529,46500.0
112.35719219937296,99.76098623731336,77.38400021255113,46533.33333333333
112.21034108650207,99.92170093408484,77.32073774179037,46566.66666666667
112.20692757534864,99.91077240612844,77.30494032970813,46600.0
112.33894313460877,99.91791696435659,77.5490460691699,46633.33333333334
112.28547332911656,100.01749947290743,77.56064199873498,46666.66666666666
112.60444595726854,100.1048125261835,77.92964495182238,46700.0
112.28644447921556,99.99747040108484,77.70200281646066,46733.33333333334
112.53690085015387,99.90139779898816,78.01718562561936,46766.66666666666
112.54845355447763,99.92009596828872,78.00213842382517,46800.0
112.50185902806871,99.99664851277754,77.65657729367406,46833.33333333334
112.61638563049853,99.99180456640134,77.85887096774194,46866.66666666666
112.46822360380466,99.90876242095754,77.37369148201286,46900.0
112.60197141187098,99.89452149423457,77.59230033476804,46933.33333333333
112.41968870346598,99.8579107830552,77.36473042362003,46966.66666666667
112.32030075187971,99.75311493018259,77.12226100966703,47000.0
112.63752059089218,99.99957489770976,77.67670970827355,47033.33333333333
112.46559328338378,100.04200542005421,77.44091078165685,47066.66666666667
112.61844412561771,100.05133110154631,77.60749774164408,47100.0
112.47619427174664,100.04516711833784,77.4388915457782,47133.33333333334
112.69623784473141,100.04798342101068,77.63547478612041,47166.66666666666
112.71005366916414,100.05680429353313,77.62240289069557,47200.0
112.27649440342935,99.84543939033102,77.28289804450795,47233.33333333334
112.63935384451885,99.96200648280993,77.69504224454009,47266.66666666666
112.45687608376684,100.0966253167934,77.44820594904628,47300.0
112.60861995071251,99.92103289403192,77.49215150541092,47333.33333333334
112.48074038358513,99.9515161255759,77.2843672988321,47366.66666666666
112.50291974713379,99.94380156434158,77.30820743597984,47400.0
112.65928051437376,99.920240182794,77.58448908018492,47433.33333333333
112.24970461868958,99.68082706766916,76.96847475832439,47466.66666666667
112.52747223550665,99.93931664806843,77.59944736702269,47500.0
112.39242255167649,99.88955311121738,77.37701259365535,47533.33333333333
112.38207509724535,99.77854515625414,77.4304728639094,47566.66666666667
112.39350639041041,99.78860046042708,77.43274853801171,47600.0
112.46522131887986,99.9673733992242,77.3010255592752,47633.33333333334
112.5750836920134,100.0060577076359,77.42969870875179,47666.66666666666
112.41460757744831,100.02027206546578,77.27429725277645,47700.0
112.54965467968564,99.8759757614247,77.58659469185784,47733.33333333334
112.12882904165684,99.90576685828279,77.29863243824973,47766.66666666666
112.11100611596714,99.91366774286688,77.27734467280888,47800.0
112.37604191474159,99.92027202243919,77.57900029107459,47833.33333333334
112.227911407478,99.89976449419174,77.34841628959276,47866.66666666666
112.62041022371008,99.94983792975184,77.70187045007705,47900.0
112.28128390357493,99.803974491281,77.38181048397765,47933.33333333333
112.5337767071638,100.05498533724341,77.82082635106829,47966.66666666667
112.53555718475072,100.04854419773771,77.86156786761626,48000.0
112.30977229601518,100.02047754585705,77.52184798650643,48033.33333333333
112.64119417168196,100.0458768873403,77.72883011297645,48066.66666666667
112.49951783992285,99.99450873245472,77.27975999142826,48100.0
112.49766193740368,100.07141718476008,77.56036452521387,48133.33333333334
112.26370548219288,99.95603574763241,77.21293850873683,48166.66666666666
112.29609177004136,99.93645458183272,77.18922235560892,48200.0
112.89612704585969,99.94614595149356,77.54372603035705,48233.33333333334
112.54950375211813,99.91764167944271,77.12092848113181,48266.66666666666
113.01116221522902,100.00104897926249,77.6623093681917,48300.0
112.84461658463111,100.02775760509964,77.37141934963286,48333.33333333334
113.09546769527479,100.09594985535198,77.73657987785278,48366.66666666666
113.12844208721741,100.08740490731813,77.69117647058823,48400.0
112.79124820659972,100.18781550560604,77.70625431744513,48433.33333333333
112.77861612072138,100.1628897418371,77.89342236710658,48466.66666666667
112.6798719487795,100.1218087234894,77.51668667466987,48500.0
112.61368829374572,99.98421807747488,77.60595674584197,48533.33333333333
112.71695174743955,100.34135782916272,77.78983211910041,48566.66666666667
112.6922525107604,100.26744247834637,77.70519156171953,48600.0
112.77887154861945,100.12031479258371,77.6590903027878,48633.33333333334
112.61803388021877,100.11852741096442,77.44177671068428,48666.66666666666
112.75846219246506,100.03756841489985,77.76699080716297,48700.0
112.43622782446312,99.94445778311324,77.15219421101773,48733.33333333334
112.814341583628,100.03696560591447,77.54261759348547,48766.66666666666
112.88998265973056,100.18015206082434,77.72575696945445,48800.0
112.62913854066215,100.14609450337512,77.34884281581485,48833.33333333334
112.89652760967212,100.20947308964735,77.67618817074155,48866.66666666666
112.66237161531281,100.27053488061891,77.57382953181273,48900.0
112.92331692622179,100.1738077947228,77.59060222168428,48933.33333333333
112.66623982926504,100.22048819527815,77.40400160064027,48966.66666666667
112.66183806856077,100.21661998132583,77.40482859810591,49000.0
112.86575963718822,100.15160730959049,77.57438975590236,49033.33333333333
112.75393764063,100.23454409086037,77.36478088503159,49066.66666666667
113.06655995731629,100.37681739362414,77.72052821128452,49100.0
112.98373983739836,100.74400734329923,77.84308943089431,49133.33333333334
113.39025674786043,100.78975641869651,78.20326530612246,49166.66666666666
113.31982690794649,100.68625753999477,78.21195908733281,49200.0
113.11438605619148,101.08842351716964,78.2557232049948,49233.33333333334
113.04049747376602,100.88029537504858,78.36981474284234,49266.66666666666
112.79241641892244,100.6320085536953,77.97149637511083,49300.0
113.11982310093651,100.83665452653486,78.49906347554631,49333.33333333334
112.86035389765664,100.5141080822573,77.82730219459056,49366.66666666666
112.97883011297644,100.66268081511984,78.02795375356352,49400.0
113.1006624953993,100.6247962563752,78.15495031284505,49433.33333333333
112.88195278111245,100.44265706282512,77.63641456582633,49466.66666666667
113.134935694708,100.68930529200928,78.33462471009909,49500.0
112.78873276706094,100.44740811304277,77.84467201185467,49533.33333333333
112.94271122754095,100.42676827816143,77.95041147363129,49566.66666666667
112.96401259559154,100.41589267285862,77.99182345002778,49600.0
112.68146554014557,100.23760561135023,77.53908284180879,49633.33333333334
112.96997715075192,100.17833041075508,78.02053775439715,49666.66666666666
112.54038471757264,100.26869121632393,77.64437536532229,49700.0
112.7944364737765,100.21783835485417,77.92313619214623,49733.33333333334
112.79842603708151,100.303214619181,77.72380952380952,49766.66666666666
112.59989903820606,100.26085339284764,77.63130346989745,49800.0
112.91822029358192,100.08384228008144,77.7084003000107,49833.33333333334
112.80001071466835,100.11743276545592,77.44232829743919,49866.66666666666
112.99946426658094,100.06043072966892,77.74445515911282,49900.0
112.91722022142193,100.22099506469256,77.69566493263973,49933.33333333333
113.11647325596904,100.25604908630122,78.04188342003468,49966.66666666667
113.04205855784048,100.25599128540304,78.0773420479303,50000.0
112.90278442000105,100.34372177055107,77.90190764652745,50033.33333333333
113.2155262104842,100.40949713218622,78.05943710817661,50066.66666666667
112.82089909134385,100.35320686540199,77.87594983792975,50100.0
113.06068335193157,100.37993517190071,78.15141612200435,50133.33333333334
112.35017801158405,100.05574153780752,77.51833253626654,50166.66666666666
112.33428981348636,100.06849460651468,77.49718369732717,50200.0
112.6999866613312,100.07232226223823,77.8280112044818,50233.33333333334
112.61523275977058,100.14515139389091,77.56753368013872,50266.66666666666
112.87751149842651,100.05796282847844,77.64708572043358,50300.0
112.541760420015,99.97546340940748,77.2881442194364,50333.33333333334
112.73192803437165,100.0642588614393,77.63163265306123,50366.66666666666
112.78695478191277,100.13442710417499,77.71623315993064,50400.0
112.62569027611043,100.10481525943712,77.50764305722291,50433.33333333333
112.81545246825016,99.94271746639036,77.78901641957594,50466.66666666667
112.77305588902227,100.090622915833,77.5079098305989,50500.0
113.18962086300795,100.52382697947216,78.2961353162966,50533.33333333333
112.92397419354843,100.6914064516129,78.23927741935483,50566.66666666667
112.91576774193548,100.68578064516129,78.25790967741935,50600.0
113.09476380193512,100.44153257101463,78.42601024473535,50633.33333333334
112.80022766078542,100.44347286179956,78.02258498473637,50666.66666666666
112.92335175427324,100.46145739622156,78.35661226063488,50700.0
112.51444155844156,100.28509090909093,77.79511688311689,50733.33333333334
112.58668037107316,100.05168142525828,77.6968954248366,50766.66666666666
112.75314228255405,100.17472414066843,77.83998835701622,50800.0
112.55259188695723,100.2363790320447,77.56047736233495,50833.33333333334
112.73075600010584,100.23926331666271,77.74266359715277,50866.66666666666
112.6334312402424,100.24296790241064,77.50985684422217,50900.0
112.86373253232335,100.45380697401072,77.96324931435288,50933.33333333333
112.58233441824773,100.25831547193779,77.48916408668731,50966.66666666667
112.58289010610993,100.26643909925644,77.47400174644757,51000.0
112.71424413220079,100.26911169326029,77.73469873779473,51033.33333333333
112.61543719438455,100.41313949208687,77.7421000052579,51066.66666666667
112.97513013302486,100.39497344760504,78.11512172038488,51100.0
112.44134897360705,100.36824465856724,77.56409719312946,51133.33333333334
112.91547925758451,100.454992376045,77.96272148903728,51166.66666666666
112.6617119966266,100.18906810035843,77.71529095509172,51200.0
112.40795427482729,100.10769759995766,77.28583525177952,51233.33333333334
112.8090750712702,100.247175588639,77.68469538591489,51266.66666666666
112.56814921090387,100.25960465487007,77.27955789361816,51300.0
112.6949891067538,100.13422604814285,77.54556565173495,51333.33333333334
112.64887743835112,100.35130658814869,77.72832430727169,51366.66666666666
112.45017281105991,100.2279534981148,77.56496124842899,51400.0
112.7460771083062,100.20541927972269,77.73025323489719,51433.33333333333
112.25516444864424,99.90912670288999,77.37338898075964,51466.66666666667
112.6449518223712,100.24701508169252,77.76633850020947,51500.0
112.39713788741302,100.08731288214209,77.42222749314779,51533.33333333333
112.48025869712616,100.04446356855995,77.85349188963644,51566.66666666667
112.49496688050905,100.03158086893026,77.89094038491629,51600.0
112.22472258064516,100.39672258064516,77.80794838709677,51633.33333333334
112.4103483870968,100.33104516129032,78.04668387096773,51666.66666666666
112.17649820059458,100.14658634538151,77.557059406457,51700.0
112.49641286133223,100.22161709258484,78.10567658148305,51733.33333333334
112.2875026354628,100.0850990934008,77.63804554079697,51766.66666666666
112.24665296226016,100.09885620915031,77.62871600253006,51800.0
112.45717936681791,100.16750117352528,77.95240703072028,51833.33333333334
112.52435064935064,100.29987955592794,77.8345465018852,51866.66666666666
112.51116152923382,100.16105982371042,77.80649872216136,51900.0
112.50107352325094,100.29024403016338,77.75065458734814,51933.33333333333
112.49375395319416,100.13622707147377,77.78165190807506,51966.66666666667
112.51183322791479,100.11524878768715,77.84801286105841,52000.0
112.12416212819436,99.97729891076663,77.50416317553416,52033.33333333333
112.35363636363635,99.92779220779221,78.04810389610391,52066.66666666667
112.00345098039215,99.81218300653595,77.41890196078431,52100.0
112.37549149806006,99.91185584459551,77.89526859880739,52133.33333333334
112.0842091503268,99.82562091503269,77.35071895424836,52166.66666666666
112.10577777777776,99.81720261437908,77.37134640522875,52200.0
112.51636611806705,99.91975746121744,77.62067879360579,52233.33333333334
112.29388140798487,100.06320707667273,77.51014515578655,52266.66666666666
112.69671094244148,100.15599304237824,77.7707147375079,52300.0
112.65788646837034,100.30985546711356,77.77029220779221,52333.33333333334
112.77701656298395,100.35811218731136,78.09145077040188,52366.66666666666
112.7637987012987,100.36004922496859,78.0882383745287,52400.0
112.69701780847292,100.37199333174566,77.67526659786722,52433.33333333333
112.88206186658199,100.36908258580084,77.85364240163003,52466.66666666667
112.63359000820302,100.45291206901112,77.60363578629833,52500.0
112.94273768886772,100.29544071339735,77.969622396867,52533.33333333333
112.59508877775131,100.2784790029372,77.61345293853034,52566.66666666667
112.6026567172078,100.26196713503215,77.61149480034929,52600.0
112.66207024815346,100.05696370689196,77.65699558956373,52633.33333333334
112.65284715284714,100.41053683158943,77.91705662758294,52666.66666666666
112.76701737605612,100.02242414581006,77.75410489399013,52700.0
112.57271156263091,100.28547863426896,77.8615155006284,52733.33333333334
112.81530163385004,100.31307603686636,78.04383116883119,52766.66666666666
112.83119501466277,100.31682027649772,78.02023984080435,52800.0
112.66732819983594,100.33555608478208,77.67317615305231,52833.33333333334
112.71175943495678,100.2312091503268,77.75869702719797,52866.66666666666
112.5568732869492,100.258486190175,77.57985452245414,52900.0
112.7644159814463,100.24443917351887,77.8016550706304,52933.33333333333
112.43846418459421,100.1434203910984,77.48085523008123,52966.66666666667
112.52566940754795,100.29928315412188,77.65754796542272,53000.0
112.52536936747464,100.18468373731531,77.67114464482886,53033.33333333333
112.70568904779431,100.47941532152058,77.77824806772175,53066.66666666667
112.69113950565563,100.25717427733557,77.96905111018016,53100.0
112.50701929649296,100.07552973342446,77.56556601293444,53133.33333333334
112.69731881022206,100.20491202346041,77.92600544616674,53166.66666666666
112.71127461248429,100.21677314620862,77.90225701717637,53200.0
112.42755112797808,100.04830803289057,77.52042483660131,53233.33333333334
112.55964052287581,100.10041113219481,77.6934429685853,53266.66666666666
112.2710974617424,99.99650891146284,77.42948263642806,53300.0
112.43294747617924,100.04853400530226,77.64923747276687,53333.33333333334
112.50539379974865,100.40406367825723,77.74489421868455,53366.66666666666
112.39039110267763,100.29377503689648,77.48666455829644,53400.0
112.60761416003349,100.3699465856724,77.98180247172179,53433.33333333333
112.27017159547279,100.21358159912377,77.72281333124707,53466.66666666667
112.72385620915031,100.14355365802234,77.90148640101202,53500.0
112.560745705907,100.27634059488899,77.75445119396733,53533.33333333333
112.78762568077083,100.24939777963972,78.04642333472978,53566.66666666667
112.81307603686636,100.25903330540429,78.11816610808545,53600.0
112.36596014924187,99.93945648434813,77.53615940303247,53633.33333333334
112.41045226658268,99.90516313620495,77.80859385253433,53666.66666666666
112.41888045540794,100.07263335441704,77.69259962049334,53700.0
112.66016443234186,100.22300481776287,78.06726539589442,53733.33333333334
112.2706729115398,99.9188166494668,77.4400254028737,53766.66666666666
112.35346826902806,100.0694707990723,77.59290006325111,53800.0
112.58436300541565,99.98572480151428,77.80182974919816,53833.33333333334
112.45075976654923,100.04392975445609,77.54563857195436,53866.66666666666
112.8213891371786,100.33724170566276,78.01198801198802,53900.0
112.75343077974657,100.26683842473317,77.83566433566433,53933.33333333333
112.93160871386681,100.07692710515293,78.17357038123167,53966.66666666667
112.92723607038124,100.08218998743193,78.179775869292,54000.0
112.42752408881441,100.12395266024298,77.71816087138667,54033.33333333333
112.67650293255129,100.08017385839966,77.99261625471303,54066.66666666667
112.5776340594889,100.14657519899455,77.75953079178886,54100.0
112.85404069614596,100.29615121720384,78.1555812608444,54133.33333333334
112.65934065934064,100.39037278510963,77.8661864451338,54166.66666666666
112.47441872643483,100.25696480938416,77.80773460410558,54200.0
112.69048491830748,100.2659457478006,78.0430456640134,54233.33333333334
112.53843311160385,100.28236194699608,77.60347376201034,54266.66666666666
112.66917432161335,100.23756731073804,77.81377362474923,54300.0
112.52243691268082,100.21410093971069,77.59246647661281,54333.33333333334
112.71012404961985,100.19879951980793,77.63828197945845,54366.66666666666
112.70980392156864,100.20658930238764,77.70630919034281,54400.0
112.51282927598714,100.36063936063937,77.6823965508176,54433.33333333333
112.97326357852673,100.24725274725272,78.14451338135548,54466.66666666667
112.5593879804406,100.22141016877859,77.75687470424313,54500.0
112.87501971712496,100.16993532783006,77.9981860245018,54533.33333333333
112.72979061754572,100.20323350119268,77.67983037370793,54566.66666666667
112.72075271667109,100.22218393851047,77.64587861118473,54600.0
112.91118473363373,100.18462761728071,77.87990988603234,54633.33333333334
112.59191215288776,100.16627072114876,77.54355400696862,54666.66666666666
113.00029036004645,100.43601520430788,78.02584204413473,54700.0
112.68405278931593,100.38051422261948,77.74720016825279,54733.33333333334
112.88687628161313,100.32207266417791,77.9167148640833,54766.66666666666
112.89137178610862,100.33745202166254,77.9292023765708,54800.0
112.74351963825649,100.27017719122982,77.70842315579158,54833.33333333334
112.67548177628822,100.11261520737328,77.85486489317134,54866.66666666666
112.51824989526602,100.11345307917887,77.66325408462504,54900.0
112.73921240050272,100.00733137829913,78.05338814411395,54933.33333333333
112.3456936538056,99.95941387307613,77.5542641787898,54966.66666666667
112.21325183244689,99.83969728242174,77.34539969834087,55000.0
112.60886481939112,99.86153320363846,77.79107734370892,55033.33333333333
112.53058079600405,99.91628141771614,77.43206334024123,55066.66666666667
112.61554338334524,99.76780185758514,77.59940197401498,55100.0
112.65200063765344,99.91375737286785,77.52308836813859,55133.33333333334
112.77809660449543,99.9249163079866,77.75811679685424,55166.66666666666
112.79273606461555,99.92616504596418,77.77063074552314,55200.0
112.70733772591358,100.052790346908,77.77346458151413,55233.33333333334
112.869122277791,100.07750522611204,77.98002169828796,55266.66666666666
112.60540069686412,100.09967268503854,77.75506810262908,55300.0
112.70566980179605,100.02221159466495,77.76377597109304,55333.33333333334
112.4185388055357,99.86126326374004,77.4958852636871,55366.66666666666
112.43814664867297,99.8584848244291,77.47982323833719,55400.0
112.93623829344429,100.14799687825185,78.26269510926119,55433.33333333333
112.68165077706672,100.26989682643331,77.95820817552567,55466.66666666667
112.70398636244428,100.07151848937843,78.05635982166272,55500.0
112.57134905910415,100.16321229790618,77.74190299496422,55533.33333333333
112.8214683275908,100.15242512589451,77.9224224754837,55566.66666666667
112.69058177594765,100.04347481786506,77.85806673001795,55600.0
112.52734663710274,100.00702143385072,77.67207792207792,55633.33333333334
112.73173269307723,99.93978924903296,77.727997865813,55666.66666666666
112.39763005473192,99.79945799457994,77.45435464158562,55700.0
112.6343619414979,99.85714668381011,77.56817207757419,55733.33333333334
112.63254635187408,99.99031612645058,77.46805388822195,55766.66666666666
112.63830865679606,99.98668800853676,77.45407496331865,55800.0
112.85992578849722,100.12629207527166,77.77969785316725,55833.33333333334
112.73002915451895,100.17195865359129,77.69666048237477,55866.66666666666
112.65298616072607,99.70754941652771,77.87287978619248,55900.0
112.46947234178222,99.9239863967267,77.515383389128,55933.33333333333
112.78958944281528,99.98918621700881,78.16736489317134,55966.66666666667
112.82104578563995,100.05098855359002,78.27817377731529,56000.0
112.66648189209164,99.98455812480202,77.65724316334072,56033.33333333333
112.71840354767185,99.94968852285923,78.06081723154894,56066.66666666667
112.51071692535109,99.9946151409566,77.86920599725478,56100.0
112.78301086668434,100.16533262655712,78.1375563212298,56133.33333333334
112.42975926512513,100.06065885334179,77.73408299018055,56166.66666666666
112.57688841770478,100.17410548635038,77.77532467532468,56200.0
112.54358772619983,100.13818515604513,78.03962758982429,56233.33333333334
112.55870659952294,100.21974556056186,77.79668698648291,56266.66666666666
112.65375033130137,100.24940365756693,77.85722236946727,56300.0
112.40964523281595,100.12976454439872,77.55733291099145,56333.33333333334
112.72555696336184,100.08737197761587,77.87295428149086,56366.66666666666
112.74227642276422,100.18680828743773,77.9792814057173,56400.0
112.27567169672432,99.986986697513,77.22277722277721,56433.33333333332
112.54770797962652,100.10915502154891,77.70071829698315,56466.66666666668
112.56970092725612,100.43978059292152,77.77602194070785,56500.0
112.58414522659004,100.11667754995428,77.75833877497716,56533.33333333332
112.31255060728745,100.123964999347,77.59130207653128,56566.66666666668
112.42791363163371,100.25330385015607,77.77432362122791,56600.0
112.5136998824605,100.03087371033043,77.82261982499674,56633.33333333334
112.32785635417214,99.87499342762501,77.53115305746884,56666.66666666666
112.59412070759626,100.1335848074922,77.95052029136315,56700.0
112.59271255060727,100.29149797570852,77.94522659004829,56733.33333333334
112.89373196957777,100.41177550485182,78.17233149750852,56766.66666666666
112.91646997115132,100.41820089168634,78.15898242853396,56800.0
112.72096121196293,100.35395063340736,77.9512864045971,56833.33333333334
112.64152178466696,100.06708211143696,78.06386154168412,56866.66666666666
112.26618139924592,100.13049853372436,77.70145580226227,56900.0
112.54110808546291,100.06697737746124,77.89715123586092,56933.33333333332
112.28156782976059,99.9362906170135,77.66489333959213,56966.66666666668
112.29061701350858,99.93459552495695,77.67175194283628,57000.0
112.71208630079596,99.97523041474658,78.07368035190616,57033.33333333332
112.4721931294512,99.98952660242985,77.91859551738584,57066.66666666668
112.60123007074226,100.01842466476612,77.96571111815014,57100.0
112.65610811952276,100.35062295428148,77.94359096188364,57133.33333333334
112.69028340080973,100.1917030338083,78.00694042799306,57166.66666666666
112.7039013617961,100.20495294179504,78.0384878279615,57200.0
112.53128450496872,100.18917924181082,77.73721015826278,57233.33333333334
112.60637736247492,100.05213282652305,77.80300390666244,57266.66666666666
112.62705715337296,100.1443030653557,77.76255323623744,57300.0
112.76309259845846,99.9576602259529,77.99601414845317,57333.33333333334
112.36334600358991,99.94857987540917,77.62662337662337,57366.66666666666
112.45399337504601,100.10126715389872,77.82656816867343,57400.0
112.46634944003364,99.78000946422002,77.92213050107787,57433.33333333332
