,B,G,R,Time_ms,Time_s,B_F,G_F,R_F,Green_Source,GRD_Source,ICA_Source_0,ICA_Source_1,ICA_Source_2,ICA_Best_Source
0,2.001987862510036,2.287526899033389,1.337841179183427,0.0,0.0,1.5577010115703516,1.4504148864277469,1.2238150547761335,1.4504148864277469,0.22659983165161335,0.016184631018557664,0.00977755106675049,-0.011568383553500228,0.00977755106675049
1,2.619388424156904,2.0921842820183105,2.0147841347744264,33.333333333333336,0.03333333333333334,1.7068628588350148,1.613130561362632,1.3543630499484491,1.613130561362632,0.25876751141418297,0.017992143751259307,0.011006106908325717,-0.012228064278367904,0.011006106908325717
2,2.6676108080709073,2.0815632259717614,2.101182810515188,66.66666666666667,0.06666666666666668,1.84801718067238,1.774719770257428,1.486020331648142,1.774719770257428,0.28869943860928604,0.01983442600567381,0.012173070524889121,-0.012699783679322778,0.012173070524889121
3,2.105694871840287,2.0668171136749036,1.5901242609479296,100.0,0.1,1.9659297741933173,1.919051581323293,1.6110108734411257,1.919051581323293,0.3080407078821672,0.021599109899206787,0.01303681626667359,-0.012894215891720382,0.01303681626667359
4,2.2897541820336604,2.001143905053385,1.9044924270140722,133.33333333333334,0.13333333333333336,2.0395346880779823,2.0243960438412913,1.7132237512654793,2.0243960438412913,0.311172292575812,0.02306514782792402,0.01340161344021753,-0.01269073066898233,0.01340161344021753
5,2.0327698634226863,2.0903916173860786,1.5539298659083418,166.66666666666666,0.16666666666666666,2.0544676439757947,2.076968172455793,1.7769153398340205,2.076968172455793,0.3000528326217726,0.024025487749768516,0.013270025265204446,-0.01200054571007154,0.013270025265204446
6,2.307057022582348,1.9991584807833238,1.9373223466977443,200.0,0.2,2.0133616246361243,2.080856265604187,1.798212997211337,2.080856265604187,0.2826432683928499,0.024438439577933836,0.01283720873350294,-0.010828993338177577,0.01283720873350294
7,1.959967575531242,2.0556009672578117,1.6706809534740186,233.3333333333333,0.23333333333333328,1.9350774879591235,2.0558167211624094,1.7890694669635951,2.0558167211624094,0.2667472541988143,0.024471755847103427,0.01234313823051212,-0.00928479271564651,0.01234313823051212
8,1.9353229826378215,2.0531065343184305,1.5882613891585435,266.6666666666667,0.2666666666666667,1.843965989743501,2.0260777463191153,1.7698108516897142,2.0260777463191153,0.2562668946294011,0.024399127968015546,0.011952238466745174,-0.007518816873082206,0.011952238466745174
9,1.8524153078187102,2.0148854605573256,1.5818223719864342,300.0,0.3,1.7587031704739775,2.0093753910236054,1.757014035469432,2.0093753910236054,0.2523613555541735,0.024439749520043238,0.011746439876316439,-0.005659171564200943,0.011746439876316439
10,1.6647165016357763,2.0369179165049838,1.6175218101227333,333.3333333333333,0.3333333333333333,1.6886161631724288,2.0124228190563165,1.7567551381152935,2.0124228190563165,0.255667680941023,0.024667020726804698,0.011763459233810405,-0.0038126246117045426,0.011763459233810405
11,1.3803771859683795,1.8529121269354336,1.9346200086621548,366.6666666666666,0.3666666666666666,1.6364487848942577,2.0328297962032966,1.7664828887359516,2.0328297962032966,0.266346907467345,0.02503095024830088,0.012004532248067648,-0.002097331218490142,0.012004532248067648
12,1.6879408726476852,2.0615296548398705,1.6989337158666262,400.0,0.4,1.601798316317037,2.063867177866028,1.7808484555776198,2.063867177866028,0.28301872228840796,0.025439409943943416,0.012423114261406838,-0.0006334722412266004,0.012423114261406838
13,1.9312918906420555,2.0671327934040784,1.928618554365078,433.33333333333337,0.4333333333333334,1.5829989494750085,2.09874540136693,1.7957643040309497,2.09874540136693,0.30298109733598033,0.02581996096107528,0.012940793828927414,0.0004930948095001997,0.012940793828927414
14,1.9383328867889418,2.06847142719076,1.9928979738585746,466.66666666666674,0.46666666666666673,1.5776350004588924,2.132659594993568,1.808824160532722,2.132659594993568,0.32383543446084606,0.02613136322378809,0.013489674477161703,0.001254443049068231,0.013489674477161703
15,1.380477080856752,2.028575969149731,1.5990253649417696,500.0,0.5,1.5807924494048589,2.162201141526642,1.8178276227328765,2.162201141526642,0.34437351879376554,0.02634810934420288,0.014029986726637035,0.0017114828465290236,0.014029986726637035
16,1.556700161896504,1.9377357059264904,2.1924936233744754,533.3333333333334,0.5333333333333334,1.582918646423022,2.183708499055213,1.819976902630395,2.183708499055213,0.363731596424818,0.026450652384147635,0.014525028208977695,0.002037991357548918,0.014525028208977695
17,1.1220483033823607,2.0813791059432503,1.6461339508667296,566.6666666666666,0.5666666666666667,1.5717236256355474,2.1931170537916165,1.81247921367674,2.1931170537916165,0.38063784011487645,0.026426523402634173,0.014925237261875644,0.0024707799778626127,0.014925237261875644
18,1.2785706827674397,2.1247076692120057,1.7158891586637939,600.0,0.6,1.5378678633208454,2.187654598936819,1.7933577455039955,2.187654598936819,0.3942968534328235,0.0262692963961895,0.015197576522278867,0.0031956920897862487,0.015197576522278867
19,1.555911296934762,2.324583900031898,1.7785337185106986,633.3333333333333,0.6333333333333333,1.4796152432978797,2.1671812560498123,1.7619751436398505,2.1671812560498123,0.40520611240996174,0.02597578963322726,0.0153516173085586,0.004253180573980772,0.0153516173085586
20,1.8484100871600233,2.4677285157345357,1.7368494464725623,666.6666666666666,0.6666666666666666,1.403371541209917,2.133555119527487,1.7201109967462982,2.133555119527487,0.4134441227811887,0.02555561204888267,0.015399131743492738,0.0055160473693464255,0.015399131743492738
21,1.6160757133633674,2.3897662529787342,1.8102666995021377,700.0,0.7000000000000001,1.3197782013065833,2.0886667178278375,1.672594239958899,2.0886667178278375,0.4160724778689384,0.02504388391355814,0.015286204571024148,0.006756617160722088,0.015286204571024148
22,1.5207428564093664,2.387745981220749,1.8375295144570585,733.3333333333333,0.7333333333333333,1.2368729406591579,2.032922249755084,1.6251420681359001,2.032922249755084,0.4077801816191837,0.024489451693317173,0.014898485212899885,0.007790075128193502,0.014898485212899885
23,2.02154380588987,2.322070334770563,1.978279630263924,766.6666666666667,0.7666666666666667,1.1552056225773535,1.9655222405106834,1.5805503040543998,1.9655222405106834,0.3849719364562836,0.023922959146878076,0.014151690083665817,0.008595138851614784,0.014151690083665817
24,1.3963399275686958,2.2139426731219896,1.601953934488806,800.0,0.8,1.0694863610805097,1.886456045643742,1.5369398775731646,1.886456045643742,0.3495161680705774,0.023337092303998008,0.013084014489690746,0.009302478838594306,0.013084014489690746
25,1.2846937444785491,1.8891136231169896,1.681514384336539,833.3333333333335,0.8333333333333335,0.9745628575818199,1.7985369734271366,1.489268322670588,1.7985369734271366,0.3092686507565485,0.022694806108649067,0.011878166309810667,0.010080931308517622,0.011878166309810667
26,1.2788535383721469,1.8605816001211228,1.7222203372084974,866.6666666666667,0.8666666666666668,0.8700895566282428,1.7076845114350423,1.4328338076806173,1.7076845114350423,0.274850703754425,0.021960192026950626,0.01079187922570754,0.011031388525068053,0.01079187922570754
27,0.5491092903697213,1.7157197341725208,1.1798173523360955,900.0,0.9,0.7618606148448599,1.6213415149091104,1.3670371200118587,1.6213415149091104,0.25430439489725165,0.021135926387904135,0.010032265006308756,0.012134122823688049,0.010032265006308756
28,0.5694542196141427,1.52768198733821,1.3708649717201415,933.3333333333336,0.9333333333333336,0.6602602362242301,1.5462414518502159,1.2970117805864065,1.5462414518502159,0.24922967126380935,0.02028024701979104,0.009660334574795452,0.013253385858399047,0.009660334574795452
29,0.19030193449894003,1.4760416927157223,1.1261190102896659,966.6666666666664,0.9666666666666665,0.5763919154280561,1.486682411058932,1.2315447621744096,1.486682411058932,0.2551376488845225,0.019486133404301248,0.00959186919090096,0.014201304141881494,0.00959186919090096
30,0.7810632430384197,1.3775338655501583,1.5540638112028784,1000.0,1.0,0.5179186112228432,1.444061671984106,1.1787122618336479,1.444061671984106,0.2653494101504581,0.01883725571603541,0.009682646502134396,0.014825671994723094,0.009682646502134396
31,0.3562948473035102,1.3499933684717735,1.153879993589641,1033.3333333333337,1.0333333333333337,0.4869201009578732,1.4176983596079598,1.1421998697496683,1.4176983596079598,0.2754984898582915,0.018371199212556862,0.009832246287330234,0.015070270473754048,0.009832246287330234
32,0.37462704290611276,1.3269698940975485,1.1168711771017152,1066.6666666666667,1.0666666666666669,0.4799318220218145,1.405991935893417,1.1201976435600947,1.405991935893417,0.2857942923333223,0.018069764392374787,0.010038861363770808,0.014991441039111049,0.010038861363770808
33,0.4296780279203402,1.3130567018019115,1.168641937244944,1100.0,1.1,0.4893229738896303,1.407018129764665,1.1071019402979134,1.407018129764665,0.29991618946675147,0.01787848637608618,0.01037629234906049,0.014737336855399,0.01037629234906049
34,0.3667530272765296,1.3797524225923643,0.9917470619097243,1133.3333333333333,1.1333333333333333,0.5059699424206583,1.418529219360422,1.0970971654379937,1.418529219360422,0.32143205392242824,0.01774364652724675,0.01091367420775601,0.014488157794820784,0.01091367420775601
35,0.4840270764438072,1.4168010837283174,0.9430807161997131,1166.6666666666667,1.1666666666666667,0.5231938180852967,1.4379416577830642,1.088003678598435,1.4379416577830642,0.3499379791846291,0.017648657880685776,0.011629919092606569,0.014364452224853429,0.011629919092606569
36,0.4899563561897035,1.416533031399665,0.9014375716678343,1200.0,1.2,0.5399387171210784,1.4628515329186271,1.0830392466352734,1.4628515329186271,0.37981228628335373,0.017628409448629805,0.012388994111813755,0.01435902854451052,0.012388994111813755
37,0.6715781187281084,1.4152885027310025,1.1663088577341838,1233.3333333333337,1.2333333333333338,0.5599052767800566,1.49169593516939,1.0884080381254975,1.49169593516939,0.40328789704389245,0.017743958841675827,0.013011527163749419,0.014364859823418957,0.013011527163749419
38,0.707126473333594,1.3982288866730852,1.204035719081284,1266.6666666666663,1.2666666666666664,0.5865013436610197,1.5235255246251025,1.1079952251551324,1.5235255246251025,0.4155302994699701,0.018030247242229014,0.01338695817243261,0.014287526479278875,0.01338695817243261
39,0.4663758565551767,1.4910707253542943,0.9848544035043946,1300.0,1.3,0.6178893379770477,1.5567075017133771,1.139758506372938,1.5567075017133771,0.41694899534043905,0.018460927112259645,0.013519565862084772,0.014140600703321774,0.013519565862084772
40,0.573594721637306,1.5343420298334893,1.0931265792872795,1333.3333333333333,1.3333333333333333,0.6459537384806053,1.5877164749699932,1.1765626767474766,1.5877164749699932,0.41115379822251663,0.01895754908555838,0.013477694486043777,0.014052968422390464,0.013477694486043777
41,0.49889126161317227,1.5685761415187691,1.0022427008449857,1366.6666666666667,1.3666666666666667,0.6587461562982347,1.6110931930632617,1.209539109587073,1.6110931930632617,0.4015540834761888,0.019424313614015337,0.013317355038601488,0.014213645923898802,0.013317355038601488
42,0.7220726301123589,1.5800832450550402,1.2532503444371388,1400.0,1.4000000000000001,0.6438572669990271,1.6203524045190798,1.2307744286733189,1.6203524045190798,0.3895779758457609,0.019775048856628098,0.013046154049946669,0.01480783247439604,0.013046154049946669
43,0.5803710413468406,1.6674874507840305,1.081534381060235,1433.333333333333,1.4333333333333331,0.5925788723815225,1.609639242218737,1.234839474296319,1.609639242218737,0.3747997679224182,0.01994588570273753,0.01263366033369305,0.015943012205404044,0.01263366033369305
44,0.29257539182374065,1.5259095876825857,0.9582837537190253,1466.6666666666663,1.4666666666666663,0.5058394093512718,1.5766069541997274,1.2203540569655753,1.5766069541997274,0.3562528972341521,0.01990750074799455,0.012053431005940578,0.017551086667104247,0.012053431005940578
45,1.2115251097799653,1.7387127838205672,1.7943501378058855,1500.0,1.5,0.3982626231484929,1.5251651655358451,1.1911561313081958,1.5251651655358451,0.3340090342276494,0.019677718786326702,0.01132915058067776,0.019335328414916485,0.01132915058067776
46,0.7842617577695772,1.828223114988785,1.3466406441177015,1533.3333333333337,1.5333333333333337,0.2941258558141066,1.46497499645663,1.1551052990558413,1.46497499645663,0.30986969740078885,0.019317060848395698,0.010545749659583823,0.020862119180096846,0.010545749659583823
47,0.8225698232244357,1.84407649556789,1.314970967429825,1566.666666666667,1.566666666666667,0.2152583282985869,1.406808989118313,1.1199497267706002,1.406808989118313,0.28685926234771286,0.018896519705800023,0.009816480070130635,0.02177964955971047,0.009816480070130635
48,0.7234661474720042,1.7918828778642248,1.2064377061012626,1600.0,1.6,0.16969558130915077,1.3568390030517905,1.089096587141569,1.3568390030517905,0.2677424159102215,0.018457665932399378,0.009225878659398183,0.02199830254545774,0.009225878659398183
49,0.43705734426339515,1.4586506897140061,1.4426961050483325,1633.333333333333,1.633333333333333,0.15079061513043326,1.314218059531654,1.0616285123833393,1.314218059531654,0.2525895471483146,0.018006417257389825,0.00876753103716141,0.021671199103919046,0.00876753103716141
50,0.4601820817497448,1.4511952609469911,1.4681119126326754,1666.666666666667,1.666666666666667,0.14686642063046704,1.2737823481017638,1.0366425537693962,1.2737823481017638,0.23713979433236765,0.017548135148513663,0.00832103000908553,0.02100482699244284,0.00832103000908553
51,-0.7254274981013467,1.1539919521655677,0.7119112657349752,1700.0,1.7,0.15196595884830294,1.2316576916216684,1.016523239950354,1.2316576916216684,0.2151344516713143,0.017116862837737886,0.007727896061935171,0.020089743796483504,0.007727896061935171
52,-1.1467949568440081,0.6638930037104346,0.707853596597849,1733.3333333333337,1.7333333333333338,0.16973117504124424,1.1893960317559076,1.0056389505002763,1.1893960317559076,0.18375708125563128,0.016762462326990357,0.006929737911085024,0.01887040360669011,0.006929737911085024
53,-0.7113875223879034,0.9024927325827702,0.5272962789020579,1766.6666666666663,1.7666666666666664,0.21044419301645134,1.153839767345258,1.0071265981293922,1.153839767345258,0.14671316921586586,0.016518619039771344,0.006036371408324345,0.017210747314089555,0.006036371408324345
54,0.13874280234776828,1.0293549291803656,1.0009797430321572,1800.0,1.8,0.2855357467674353,1.1337808368147593,1.0217542584596317,1.1337808368147593,0.11202657835512753,0.01639285953989267,0.0052626434292278815,0.014973648301444839,0.0052626434292278815
55,0.2321192737545588,1.1744279248445006,0.807724888096102,1833.333333333333,1.833333333333333,0.40196380614359867,1.1361152979381444,1.0490438536354345,1.1361152979381444,0.08707144430270986,0.016383674942346563,0.004800161305606364,0.01210033040969959,0.004800161305606364
56,0.21041498271805248,1.167939854625448,0.7771239157538182,1866.666666666667,1.866666666666667,0.5569143675761087,1.1628718926029187,1.0881449039998539,1.1628718926029187,0.07472698860306481,0.016496816076497913,0.004717133589837888,0.008696206617269199,0.004717133589837888
57,0.48453718293610193,1.058768531909951,1.1365031921309932,1900.0,1.9000000000000001,0.7358760462324963,1.2100167422884593,1.137370855929242,1.2100167422884593,0.07264588635921743,0.016740880447611874,0.004937115772979754,0.0050581585116237235,0.004937115772979754
58,0.5118974236364109,1.2308493540372292,0.834651889089441,1933.333333333333,1.9333333333333331,0.9177583133061349,1.269101686133293,1.1936769557163143,1.269101686133293,0.07542473041697884,0.01711099327510666,0.005297484030023356,0.0015710651864990794,0.005297484030023356
59,1.1941198047194839,1.1658275177490178,1.5285911608842853,1966.6666666666663,1.9666666666666663,1.0848921348100111,1.3313275804390972,1.2532808274827365,1.3313275804390972,0.07804675295636065,0.017580912432891532,0.005647023400821925,-0.0014756850344518164,0.005647023400821925
60,0.9854786989150507,1.3205576072392196,1.1737200087597326,2000.0,2.0,1.2305659487209233,1.3915587618595253,1.3129489458430441,1.3915587618595253,0.0786098160164812,0.018111079678691362,0.005924575114673477,-0.004007841283325573,0.005924575114673477
61,1.4745149645843723,1.3598074727026597,1.6102717298884437,2033.333333333333,2.033333333333333,1.3582389367820156,1.4494660188386845,1.3704052734626015,1.4494660188386845,0.07906074537608299,0.018660609365867796,0.006177693658782822,-0.0061251975887127155,0.006177693658782822
62,1.5284419796120206,1.340346667350668,1.5774475628062894,2066.666666666667,2.066666666666667,1.4739854145238087,1.5072971828929902,1.4235119397721103,1.5072971828929902,0.08378524312087987,0.01919201773706331,0.0065182274040996085,-0.007949129388797362,0.0065182274040996085
63,1.1709664590496536,1.3973843090979288,1.127130378334889,2100.0,2.1,1.5801107626460755,1.5667608465905427,1.470220909965585,1.5667608465905427,0.09653993662495775,0.019678677045889787,0.007038798898763306,-0.009513746522471986,0.007038798898763306
64,1.3839329322246048,1.366685032738202,1.3963776163800674,2133.333333333333,2.133333333333333,1.6747939316958005,1.627516389305282,1.5102726382159226,1.627516389305282,0.11724375108935936,0.02012169067025102,0.007735100909077249,-0.010779015830931929,0.007735100909077249
65,1.2455102078347002,1.5019885392474388,1.191573675240024,2166.6666666666665,2.1666666666666665,1.7542867411039167,1.6872011162262552,1.5459142202095155,1.6872011162262552,0.14128689601673972,0.02055222159394813,0.008492047808630589,-0.011684843822655507,0.008492047808630589
66,1.8114640570401503,1.6598822421724373,1.6532870287620607,2200.0,2.2,1.8135000401663364,1.7417889001297748,1.5794852917940805,1.7417889001297748,0.16230360833569435,0.02100045432124011,0.009149179035458666,-0.01216565031923879,0.009149179035458666
67,1.9680292370594898,1.8349577188086303,1.5013994995704547,2233.333333333333,2.233333333333333,1.8466838525455878,1.7862531997928712,1.610271981919239,1.7862531997928712,0.1759812178736322,0.021456153328386247,0.009590750715672508,-0.012163799622501062,0.009590750715672508
68,1.6417366704173457,1.7195991779838251,1.424818124125974,2266.6666666666665,2.2666666666666666,1.8497518516306206,1.8157109555475117,1.6339567120550098,1.8157109555475117,0.1817542434925019,0.021858793202593357,0.009789503603118676,-0.011670443505171399,0.009789503603118676
69,2.3531839122612075,1.9467117850897881,1.8485876950458517,2300.0,2.3000000000000003,1.8213229136495979,1.8262869116127316,1.6447250112004117,1.8262869116127316,0.1815619004123199,0.02212428115821444,0.00978075299884653,-0.01073198782895278,0.00978075299884653
70,2.077332126109134,1.993401697862841,1.5812337952027526,2333.333333333333,2.333333333333333,1.7617010071098689,1.8156333681776726,1.6381517360426467,1.8156333681776726,0.17748163213502588,0.022186677492970406,0.009607830059436514,-0.00940792471889432,0.009607830059436514
71,2.079396754885453,1.882519623909589,1.7940955793988722,2366.6666666666665,2.3666666666666667,1.672732615943696,1.7835655819656904,1.6132395700675153,1.7835655819656904,0.1703260118981751,0.02202687943994381,0.009290861360338496,-0.00775115483112738,0.009290861360338496
72,1.8827935730065388,2.0007005578862604,1.4904516785295765,2400.0,2.4,1.5586289762066532,1.7320432611762027,1.5724155579545107,1.7320432611762027,0.15962770322169195,0.02166993826862734,0.008827154746563221,-0.0058293648336204245,0.008827154746563221
73,2.400888483809283,2.0518204138487866,2.203299894559295,2433.333333333333,2.433333333333333,1.4251705682105653,1.6638990633516524,1.5193925209453603,1.6638990633516524,0.14450654240629213,0.02115561405749621,0.008207800076154544,-0.0037320487676556937,0.008207800076154544
74,2.3896100026884715,2.045844865074922,2.2181246140961726,2466.666666666667,2.4666666666666672,1.277044313235901,1.5813000386317475,1.4565102233520484,1.5813000386317475,0.12478981527969912,0.020507156945509957,0.0074378018720334775,-0.0015356575709168496,0.0074378018720334775
75,0.8652444676527378,1.6938207506825147,1.287725081309367,2500.0,2.5,1.1157900789761148,1.4852324802695243,1.3835082947699728,1.4852324802695243,0.10172418549955142,0.019720217995730698,0.006549514245316788,0.0007369957567104271,0.006549514245316788
76,1.091649803254817,1.5205729178501104,1.5648233968953327,2533.333333333333,2.533333333333333,0.941109577365758,1.3765763618713314,1.298645336448696,1.3765763618713314,0.0779310254226353,0.018777028316334578,0.005605115283623981,0.0031047096524311913,0.005605115283623981
77,1.0558067883365345,1.602148785934861,1.1350219728456101,2566.666666666667,2.566666666666667,0.7560945971840289,1.2582853282547444,1.2019921373850486,1.2582853282547444,0.05629319086969575,0.017680082748484604,0.004680407570147505,0.005540118704599219,0.004680407570147505
78,0.7512530258568588,1.253001264920236,1.400856667104321,2600.0,2.6,0.57254595457742,1.137013100334054,1.0990524479258237,1.137013100334054,0.03796065240823032,0.01648757886064508,0.003827162999140386,0.007870717034030607,0.003827162999140386
79,0.3609186948590513,1.169121868628087,0.9777762432228807,2633.333333333333,2.6333333333333333,0.4098215871459032,1.0223628757900516,1.001149751327975,1.0223628757900516,0.02121312446207657,0.015319053042955647,0.0030441590501967637,0.00979616424309148,0.0030441590501967637
80,0.37060157562242485,1.163823420055246,0.9579983574452557,2666.6666666666665,2.6666666666666665,0.28568694089207736,0.9236510389537788,0.9207917460778253,0.9236510389537788,0.002859292875953434,0.014312920941298208,0.0022940656815267847,0.011054733142741791,0.0022940656815267847
81,0.6568505529077262,0.9884151693843729,1.2133564730611046,2700.0,2.7,0.2064458254852011,0.8463057226030859,0.865173021255722,0.8463057226030859,-0.018867298652636144,0.013561294762183861,0.0015534778532804723,0.011597294579040202,0.0015534778532804723
82,0.28535521915228634,0.8936586712129587,0.7585715610857394,2733.333333333333,2.733333333333333,0.1642197624948457,0.7901802962626716,0.8330571472576942,0.7901802962626716,-0.042876850995022586,0.013072567320550652,0.0008398719093036933,0.011619954035628134,0.0008398719093036933
83,0.10358194164353042,0.6732054178622727,0.8092341197252659,2766.666666666666,2.766666666666666,0.14228340710660956,0.7505634648672251,0.8170421972497831,0.7505634648672251,-0.06647873238255797,0.012787286985794653,0.00018974074260944148,0.011450610325375912,0.00018974074260944148
84,-0.5961732973199172,0.4498665131028633,0.3126003749605801,2800.0,2.8000000000000003,0.12438813786068559,0.721392069986604,0.8089564883948878,0.721392069986604,-0.08756441840828377,0.01262961225971126,-0.0003762950711995225,0.011379482206177998,-0.0003762950711995225
85,0.022783156818671605,0.578555922901814,0.8250550305960968,2833.333333333333,2.833333333333333,0.10272375333932275,0.6989426936614761,0.8046147204348703,0.6989426936614761,-0.10567202677339416,0.012556744962832551,-0.0008627891526871315,0.011531312284293297,-0.0008627891526871315
86,0.033921243435924904,0.5723159259558627,0.8369467349842011,2866.666666666666,2.8666666666666663,0.07979417504563684,0.6835026311856706,0.8050671294749533,0.6835026311856706,-0.12156449828928273,0.012575259197513455,-0.0012844151506866033,0.011849568558461735,-0.0012844151506866033
87,-0.30068430733699514,0.5458674985334143,0.44826754801400676,2900.0,2.9,0.0626853041749293,0.6775480981082751,0.8137025575734674,0.6775480981082751,-0.13615445946519233,0.01271537569639323,-0.0016503621569311175,0.012204333427004133,-0.0016503621569311175
88,0.5159960041058965,0.6892113308462684,1.0780880518576184,2933.333333333333,2.933333333333333,0.054025082699681794,0.6817531459213341,0.8316849848589913,0.6817531459213341,-0.14993183893765727,0.012986195615289397,-0.001968056943726866,0.01254293209868941,-0.001968056943726866
89,0.14081194792791954,0.7889459436922797,0.7220195846941281,2966.666666666667,2.9666666666666672,0.04776643944882578,0.6925258244700232,0.8555739163300201,0.6925258244700232,-0.1630480918599969,0.013349346897841525,-0.0022542950499605517,0.012949075670182147,-0.0022542950499605517
90,0.4839177809646411,0.7790471541278348,1.0489509049625714,3000.0,3.0,0.03319347856425909,0.7031689334121515,0.8782445948013319,0.7031689334121515,-0.1750756613891804,0.01372254768056861,-0.0025234560331760104,0.013562822379549772,-0.0025234560331760104
91,-0.08432220911198102,0.7282586019270084,0.7476418565158806,3033.333333333333,3.033333333333333,0.0019126458590983733,0.706646667753069,0.8914182192868343,0.706646667753069,-0.18477155153376534,0.014000355589091821,-0.0027696054894667055,0.014456083002542426,-0.0027696054894667055
92,-0.09396250902031446,0.7266938320506454,0.7706966707125131,3066.666666666667,3.066666666666667,-0.04830231022401924,0.6973465220282683,0.8888125384416355,0.6973465220282683,-0.19146601641336725,0.014088772854289118,-0.002991247874274445,0.015572602760863523,-0.002991247874274445
93,0.2549400967014274,0.6989287080249355,1.1673123343531766,3100.0,3.1,-0.11353874287081911,0.6719457890186309,0.8690694609630878,0.6719457890186309,-0.1971236719444569,0.013945714548839753,-0.003237160041999287,0.016750903353839164,-0.003237160041999287
94,0.22354862567217462,0.8702040924576406,0.8584628908531275,3133.333333333333,3.1333333333333333,-0.18588990864884167,0.6302990057000017,0.8361739071912458,0.6302990057000017,-0.2058749014912441,0.013596395165975408,-0.003595694564662521,0.017795697166567103,-0.003595694564662521
95,0.21302930133723377,0.7453374926507089,1.1981995402802803,3166.666666666666,3.166666666666666,-0.25694291129103813,0.5756922862305468,0.7966733061752378,0.5756922862305468,-0.220981019944691,0.013109979250289344,-0.0041273676672509635,0.01856488563600147,-0.0041273676672509635
96,-0.27917064369980543,0.8182137872583782,0.6766038850069103,3200.0,3.2,-0.32176034148143945,0.5133883450472428,0.7560999513133514,0.5133883450472428,-0.24271160626610855,0.012561164474117294,-0.00482261835751573,0.0190374054269865,-0.00482261835751573
97,-0.5480655446774438,0.5147375494107808,0.9544080171116369,3233.333333333333,3.233333333333333,-0.3809393883741798,0.4481263651689856,0.7169335139457852,0.4481263651689856,-0.2688071487767996,0.012001281679975011,-0.005619735760759906,0.019317330214486384,-0.005619735760759906
98,-0.5672481655754746,0.5106860786387142,1.0046977315463619,3266.666666666666,3.266666666666666,-0.43859968094232826,0.3825085692901831,0.6786041772416175,0.3825085692901831,-0.29609560795143436,0.011445900231905089,-0.006443754463242193,0.019554188737431182,-0.006443754463242193
99,-0.6150681831738484,0.6299007295765873,0.6188182076661307,3300.0,3.3000000000000003,-0.4973613800977903,0.3172987804240479,0.6391894617172404,0.3172987804240479,-0.32189068129319254,0.010881768271592658,-0.007233423645669679,0.019823742759331384,-0.007233423645669679
100,-0.30798261348225264,0.4116980229150404,0.6286467489296986,3333.333333333333,3.333333333333333,-0.5545396431695108,0.2529027551797769,0.5977864644984643,0.2529027551797769,-0.3448837093186874,0.010290610308136439,-0.007955110380553508,0.020062177446256796,-0.007955110380553508
101,-0.6900816191707743,0.306782110960896,0.27808867121238545,3366.666666666666,3.3666666666666663,-0.6034075251258662,0.19043441753078885,0.5558229767452642,0.19043441753078885,-0.36538855921447533,0.009673740565280283,-0.008607387508917938,0.020120223013689785,-0.008607387508917938
102,-0.41145897091867106,0.05287671974976399,0.8349997762788834,3400.0,3.4,-0.6387207554174231,0.1316226475958792,0.51658512883599,0.1316226475958792,-0.3849624812401108,0.009062983703989072,-0.009217659144057078,0.019901795615983934,-0.009217659144057078
103,-0.7161113963437642,0.07058957063136789,0.2738030604919625,3433.333333333333,3.433333333333333,-0.6612453723896694,0.07843538794853601,0.4837208858303672,0.07843538794853601,-0.4052854978818312,0.008514432850755163,-0.0098213089550943,0.0194697012987114,-0.0098213089550943
104,-0.7012062877529459,0.04158151765324439,0.3184527421817887,3466.666666666667,3.4666666666666672,-0.6771926350734154,0.03335236944102018,0.45930965513182387,0.03335236944102018,-0.4259572856908037,0.008083275935068421,-0.010409665592810912,0.019031270093625062,-0.010409665592810912
105,-0.46903474225806413,-0.025201805365911777,0.7045763282501314,3500.0,3.5,-0.6935594935572112,-0.00033366203147763607,0.4423614147451314,-0.00033366203147763607,-0.442695076776609,0.007791380261188883,-0.010883329584610149,0.0188207257861528,-0.010883329584610149
106,-0.7208168412090736,-0.0011300767776659052,0.40432151302179803,3533.333333333333,3.533333333333333,-0.7135526173808991,-0.01940219910162374,0.4294708813070535,-0.01940219910162374,-0.44887308040867724,0.00761790930665101,-0.011085333070727905,0.018968176159198383,-0.011085333070727905
107,-0.5637692189401617,-0.005704276984491807,0.6320660768446806,3566.666666666667,3.566666666666667,-0.7351757190765212,-0.022509687175759935,0.41759728640817323,-0.022509687175759935,-0.44010697358393314,0.007523237038611359,-0.01090960821130388,0.019438645794541468,-0.01090960821130388
108,-0.9816598426692645,-0.049451109184709165,0.06065523167812331,3600.0,3.6,-0.7532515864067989,-0.011228354894151435,0.4062943461288924,-0.011228354894151435,-0.41752270102304384,0.007479547161949687,-0.010380647897862501,0.020071073963492517,-0.010380647897862501
109,-0.7011365161402242,-0.1222610940766124,0.5867251135478099,3633.333333333334,3.633333333333334,-0.763167091177681,0.010657441161793102,0.3973719367746171,0.010657441161793102,-0.38671449561282395,0.0074809285659723935,-0.009631448429208277,0.020685646205256425,-0.009631448429208277
110,-0.6889378547748998,-0.11337123541384712,0.5980962744178434,3666.666666666666,3.666666666666666,-0.763443553964326,0.03897674488446895,0.3928674420426114,0.03897674488446895,-0.3538906971581425,0.007532669436308398,-0.008812966214708137,0.021176572896726642,-0.008812966214708137
111,-0.9910309264526385,-0.031007074811758295,0.22978981334599521,3700.0,3.7,-0.7555939843758835,0.07080306963249881,0.3933043356977068,0.07080306963249881,-0.32250126606520796,0.007634972827730923,-0.008012571364322946,0.021532720339292703,-0.008012571364322946
112,-0.5620889367720827,-0.06826651282001293,0.5583373720003288,3733.333333333334,3.733333333333334,-0.7429839529157944,0.10483243606583648,0.39709817842980843,0.10483243606583648,-0.29226574236397196,0.007773316124376344,-0.007229707117122477,0.021813622236859488,-0.007229707117122477
113,-1.1281438801986894,0.0035266069166365894,0.1842015601997775,3766.666666666666,3.766666666666666,-0.7302979372376844,0.14039414001750228,0.4011603518284706,0.14039414001750228,-0.2607662118109683,0.007920660147510394,-0.006414306427048382,0.022119997931226994,-0.006414306427048382
114,-0.612346817376667,0.08719010554853314,0.41357371714375535,3800.0,3.8000000000000003,-0.7228564016921099,0.17596768642214752,0.40240774572061566,0.17596768642214752,-0.22644005929846814,0.008048783594476859,-0.005538471179535581,0.022554012789988476,-0.005538471179535581
115,-0.8936671424766846,0.19382614786939084,0.16953383875769476,3833.333333333334,3.833333333333334,-0.7251084130997526,0.20836948062015792,0.3992927303240787,0.20836948062015792,-0.19092324970392077,0.008139851391553552,-0.00465094459691116,0.02317018550218459,-0.00465094459691116
116,-0.895244690466212,0.19984884480835297,0.1527187374461394,3866.666666666666,3.8666666666666663,-0.7390222001308607,0.23328388155459992,0.392502021129389,0.23328388155459992,-0.15921813957478906,0.008192261914631536,-0.0038783523830127173,0.023945160099452217,-0.0038783523830127173
117,-0.23680879855648512,0.27017717298784605,0.8176559353702091,3900.0,3.9,-0.7635763294719918,0.24679554730626352,0.3844011804903224,0.24679554730626352,-0.13760563318405888,0.00821786211406545,-0.0033732163132736254,0.024790109479446557,-0.0033732163132736254
118,-0.8008910012298346,0.3381612235612953,0.33565768355468745,3933.333333333333,3.933333333333333,-0.7958778734286881,0.24687456148163398,0.37712897543530444,0.24687456148163398,-0.13025441395367046,0.008226965899024413,-0.0032334794678404747,0.02560069433323514,-0.0032334794678404747
119,-0.6054926433531488,0.3429641337784325,0.661408038793328,3966.666666666667,3.9666666666666672,-0.8331434115930648,0.23381968169274134,0.37022894418078317,0.23381968169274134,-0.13640926248804183,0.008206236105473916,-0.0034384359200197536,0.026309786601726483,-0.0034384359200197536
120,-0.5052397935149858,0.4585397310616859,0.18756806662736025,4000.0,4.0,-0.8740542303659001,0.20932975329302086,0.35991154183795965,0.20932975329302086,-0.15058178854493878,0.008110034289721428,-0.003856380910320201,0.026904150771178862,-0.003856380910320201
121,-0.7256854806940712,0.3209889136183166,0.5230667956997298,4033.333333333333,4.033333333333333,-0.918495856103129,0.1750752210095282,0.34144452914321066,0.1750752210095282,-0.16636930813368248,0.00788443662244365,-0.004335667450579627,0.027398599794669347,-0.004335667450579627
122,-0.7045517774548862,0.3222658778427017,0.5372829632691569,4066.666666666666,4.066666666666666,-0.9662402659439276,0.13213408322860642,0.313012208217954,0.13213408322860642,-0.18087812498934758,0.007509843833317121,-0.0048069083761662825,0.02780174064328836,-0.0048069083761662825
123,-1.1339712198487106,0.3309759174031391,0.16347832313854557,4100.0,4.1,-1.015842655489777,0.08160458726396534,0.27733760310171185,0.08160458726396534,-0.1957330158377465,0.00702041435681939,-0.005303975673824459,0.028102361462523734,-0.005303975673824459
124,-0.9098506089210533,0.03353854895633262,0.4564561238889198,4133.333333333334,4.133333333333334,-1.0642428707807516,0.025430203820827297,0.23976206447732787,0.025430203820827297,-0.21433186065650056,0.006481642079072053,-0.005898417838425688,0.028268999864474283,-0.005898417838425688
125,-1.4172500040162672,0.07482512408419245,0.07590335229687895,4166.666666666667,4.166666666666667,-1.1072732837848387,-0.03355139794498264,0.20484213893550865,-0.03355139794498264,-0.23839353688049128,0.005949029888021018,-0.006620037148341781,0.028255571258105436,-0.006620037148341781
126,-0.9852879399960426,-0.06039213249469694,0.5235527963095111,4200.0,4.2,-1.140841153266807,-0.09204574881808181,0.17416080377345003,-0.09204574881808181,-0.2662065525915318,0.005442396149243869,-0.007418444459227658,0.02801869983144837,-0.007418444459227658
127,-1.3621514205712364,-0.05802056562616003,0.03500097866314117,4233.333333333333,4.233333333333333,-1.1617272451213967,-0.14639064732099522,0.14657505790997383,-0.14639064732099522,-0.29296570523096904,0.004951165641494556,-0.008171780406301043,0.027537202399608832,-0.008171780406301043
128,-1.3827017030453583,-0.060885418403385703,0.011561667776279722,4266.666666666667,4.2666666666666675,-1.1678858887081136,-0.19264570835302153,0.12000660648167889,-0.19264570835302153,-0.3126523148347004,0.004457644054548248,-0.008730649175718093,0.02682253298658423,-0.008730649175718093
129,-0.8803939800819649,-0.23656797325488618,0.24932110464110466,4300.0,4.3,-1.1594485421658918,-0.22754224195036366,0.09309699318455834,-0.22754224195036366,-0.320639235134922,0.003957494635682348,-0.008981289967013436,0.025931876599343394,-0.008981289967013436
130,-1.4939410723397217,-0.3016918738384104,-0.17273374000206132,4333.333333333333,4.333333333333333,-1.1403672692581486,-0.24992368063607798,0.06596754883915625,-0.24992368063607798,-0.31589122947523424,0.0034690070679359065,-0.008901036121045017,0.02498688812785137,-0.008901036121045017
131,-0.9539345446008436,-0.2936594496881634,0.4887042844280187,4366.666666666666,4.366666666666666,-1.1181249390027903,-0.2611985918396507,0.04028229491357165,-0.2611985918396507,-0.3014808867532224,0.0030312624145418235,-0.00857092828623749,0.024158512582960173,-0.00857092828623749
132,-1.416025920736921,-0.3154919859896434,-0.3290975890074478,4400.0,4.4,-1.1002762413680205,-0.2640712388673275,0.01868083160471327,-0.2640712388673275,-0.28275207047204076,0.002690983574735958,-0.008127321392841693,0.023599255793222782,-0.008127321392841693
133,-0.8141780837043562,-0.2622812287972542,0.2738342126943944,4433.333333333334,4.4333333333333345,-1.0910030638633799,-0.2607954472226312,0.0030514076721480632,-0.2607954472226312,-0.26384685489477927,0.0024765585551955204,-0.007674666570956616,0.023381346805737745,-0.007674666570956616
134,-1.1358479579741394,-0.3947781229073993,0.1958610375654926,4466.666666666667,4.466666666666667,-1.090679907931568,-0.25250241953274793,-0.0073712437629929635,-0.25250241953274793,-0.24513117576975496,0.0023751543204399593,-0.007224171619656975,0.023492759164033386,-0.007224171619656975
135,-1.3309063270600396,-0.38278737113825473,-0.334280315914427,4500.0,4.5,-1.0972326028189026,-0.239533092551798,-0.015309000521088781,-0.239533092551798,-0.22422409203070923,0.0023445205760090205,-0.006719573803000266,0.023867866707188108,-0.006719573803000266
136,-0.727011643032168,-0.27972171470360124,0.26045679192356763,4533.333333333333,4.533333333333333,-1.1076110997109403,-0.22206042664651227,-0.022381098598075244,-0.22206042664651227,-0.19967932804843702,0.0023539633745901555,-0.006124942336029308,0.024421664969773695,-0.006124942336029308
137,-1.2783925971150296,-0.26775050398282385,-0.351540650710435,4566.666666666666,4.566666666666666,-1.1204736095068406,-0.20090018284433386,-0.02788112224276285,-0.20090018284433386,-0.17301906060157102,0.0024051289217268124,-0.0054759304308276986,0.02510726607597001,-0.0054759304308276986
138,-0.39347900207600683,-0.1293319924792053,0.23358356843036437,4600.0,4.6000000000000005,-1.139854039205425,-0.17834827857218924,-0.03112963011189381,-0.17834827857218924,-0.14721864846029542,0.002510473385545904,-0.004849970451925902,0.025989453863046193,-0.004849970451925902
139,-1.4550022357198462,-0.18861510775365972,-0.2192926384024324,4633.333333333334,4.633333333333334,-1.174539452702256,-0.15794359016260195,-0.033618334085827754,-0.15794359016260195,-0.1243252560767742,0.0026650668322991925,-0.004310140162984372,0.02722770998063768,-0.004310140162984372
140,-1.4418922679446884,-0.17862810396880185,-0.30435573978235303,4666.666666666667,4.666666666666667,-1.229636705480402,-0.14231465094371745,-0.03741065174439457,-0.14231465094371745,-0.10490399919932289,0.0028487120300421404,-0.0038798717773254423,0.02890183983386383,-0.0038798717773254423
141,-0.6365430297483972,-0.07821908313036437,0.3434333082839298,4700.0,4.7,-1.2967455825656458,-0.13061024946966596,-0.0418372270425229,-0.13061024946966596,-0.08877302242714305,0.003046889733850686,-0.003545263643239924,0.03081332188248214,-0.003545263643239924
142,-1.5115888761103273,-0.1335025723372075,-0.199799971880427,4733.333333333333,4.733333333333333,-1.353521929656944,-0.11829459171907512,-0.04273374112374124,-0.11829459171907512,-0.07556085059533388,0.003259827531507047,-0.0032671189191297778,0.03247954667405216,-0.0032671189191297778
143,-1.172422876034865,-0.15605107615522146,0.02607812157568379,4766.666666666667,4.7666666666666675,-1.3752480261968774,-0.09998026121303909,-0.03506427235049487,-0.09998026121303909,-0.06491598886254421,0.003494622637928584,-0.0030026673280203224,0.033374136296904,-0.0030026673280203224
144,-1.5432759637914124,-0.03545929531619018,-0.39318536995230396,4800.0,4.8,-1.348959176411763,-0.07287454816754554,-0.016212462667566045,-0.07287454816754554,-0.0566620854999795,0.0037545546313398613,-0.0027297306248960226,0.0332203623696982,-0.0027297306248960226
145,-0.8200182898107585,0.04009702027132388,0.42753112891944284,4833.333333333333,4.833333333333333,-1.278467603792414,-0.03798431132225887,0.013087486825249949,-0.03798431132225887,-0.05107179814750882,0.004038396472306375,-0.002460327598991448,0.03209643712713312,-0.002460327598991448
146,-1.1605991419479689,-0.10544090066011771,0.3173092113352571,4866.666666666666,4.866666666666666,-1.1794777702085282,0.001030265532657365,0.05022668421039089,0.001030265532657365,-0.04919641867773353,0.004348215604602871,-0.0022412739554303254,0.030334078733706714,-0.0022412739554303254
147,-2.312853313640304,-0.1809590432363933,-0.47054502568186257,4900.0,4.9,-1.072377682117411,0.03950514703117812,0.09176720436553343,0.03950514703117812,-0.05226205733435531,0.00468638468788876,-0.002129955072115513,0.028365343049990523,-0.002129955072115513
148,-2.273779425961359,-0.4084734791895035,-0.1817202508934612,4933.333333333334,4.9333333333333345,-0.9757228344604686,0.07342307876547773,0.13321855376782435,0.07342307876547773,-0.059795475002346624,0.005038686464709104,-0.002141382737781995,0.026584136117930084,-0.002141382737781995
149,-1.8041975128469003,-0.03617797473014595,-0.16814854131784995,4966.666666666667,4.966666666666667,-0.8981896079576931,0.10164155688675801,0.17048672560203362,0.10164155688675801,-0.06884516871527561,0.005376020611585904,-0.002217907119862481,0.025182680496564445,-0.002217907119862481
150,-0.6475684655754695,0.10997370393544875,0.30090197635942384,5000.0,5.0,-0.8319192187703508,0.12754093752877357,0.2036528227616096,0.12754093752877357,-0.07611188523283602,0.005687747759527329,-0.002268716420104984,0.024019075248998083,-0.002268716420104984
151,-0.621279701245147,0.2524521471864973,0.09050166848857792,5033.333333333333,5.033333333333333,-0.7561054168401098,0.15771159767592316,0.23819644885190214,0.15771159767592316,-0.08048485117597898,0.006003387282955481,-0.0022346160770130353,0.022689148078340094,-0.0022346160770130353
152,-0.6142696837109928,0.2551000836913395,0.061353924156049865,5066.666666666666,5.066666666666666,-0.6529594319843119,0.1975380530547685,0.280294653227705,0.1975380530547685,-0.08275660017293654,0.006366121871511045,-0.0021057979982701757,0.020846581101762084,-0.0021057979982701757
153,-0.16286289054646827,0.2301749422435473,0.6127015620149641,5100.0,5.1000000000000005,-0.5240909107693916,0.24701531439012192,0.33048628925898815,0.24701531439012192,-0.08347097486886623,0.006787785099069535,-0.0018963564876461581,0.018533790000861472,-0.0018963564876461581
154,-0.05018236506718088,0.3574560093443176,0.22027927811677242,5133.333333333334,5.133333333333334,-0.3922348297366591,0.3005036188014015,0.38245836357120694,0.3005036188014015,-0.08195474476980547,0.007237950688746794,-0.0016240465100967817,0.016218907031014706,-0.0016240465100967817
155,0.18404108230080948,0.35960466064372987,0.7197101396791459,5166.666666666667,5.166666666666667,-0.2868885880735605,0.3505497142351672,0.42771955576965964,0.3505497142351672,-0.07716984153449247,0.007672817609406652,-0.0013083878027100049,0.014506206521863423,-0.0013083878027100049
156,-0.7904351897203905,0.19459448259270887,0.16303370420442898,5200.0,5.2,-0.22670671251465127,0.39239805181124215,0.46102590006213445,0.39239805181124215,-0.0686278482508923,0.00806612181572347,-0.000965698925855492,0.013777409825361877,-0.000965698925855492
157,-0.5449827891550473,0.21589788314054387,0.47428690950842556,5233.333333333333,5.233333333333333,-0.21100781466196405,0.4260245246720957,0.4821291508608452,0.4260245246720957,-0.05610462618874951,0.008412498977246599,-0.0005902096046397453,0.014014054991184983,-0.0005902096046397453
158,-0.5432361854596857,0.21922534426739096,0.5173137014614995,5266.666666666667,5.2666666666666675,-0.2223799186500541,0.45527005602994747,0.4941037522837724,0.45527005602994747,-0.038833696253824934,0.008711132628498604,-0.00013969998156483388,0.014845001597640472,-0.00013969998156483388
159,-0.3933719827429796,0.4495123493949318,0.3191832532876881,5300.0,5.3,-0.2355582869758069,0.4854123268173442,0.5011823268662682,0.4854123268173442,-0.015770000048923982,0.008956819489477252,0.0004449136227786664,0.01572601140178904,0.0004449136227786664
160,-0.19074972718734393,0.31260461255744176,0.7287969031216053,5333.333333333333,5.333333333333333,-0.22813294557145558,0.520335368475833,0.5074944284657316,0.520335368475833,0.012840940010101387,0.00914665737714917,0.0011872466922886668,0.01616131987575982,0.0011872466922886668
161,0.015202879266152592,0.637675589017277,0.44493958773168096,5366.666666666666,5.366666666666666,-0.18983594906768375,0.5603228740262362,0.5158598283364869,0.5603228740262362,0.04446304568974924,0.009285364185184549,0.002038927789074624,0.01589988325251868,0.002038927789074624
162,-0.03290373735515992,0.5348987077033289,0.5863796313161163,5400.0,5.4,-0.12602644889341588,0.6018161282525,0.5263624174148805,0.6018161282525,0.07545371083761943,0.009377180851377051,0.0029031795231096403,0.015016905254875782,0.0029031795231096403
163,-0.17614358782793413,0.6815905524826298,0.422717925032561,5433.333333333334,5.4333333333333345,-0.0528019983168501,0.639383514549833,0.5362444937129291,0.639383514549833,0.10313902083690385,0.009416767160799432,0.0036915555778807042,0.013822858791008018,0.0036915555778807042
164,-0.20067864919736017,0.686310787121704,0.40084403431262683,5466.666666666667,5.466666666666667,0.012863634147075332,0.668265803690963,0.5423089942544487,0.668265803690963,0.12595680943651433,0.009398518109379271,0.004341909401852606,0.012661328738110688,0.004341909401852606
165,-0.30615098417399905,0.600979448353441,0.8521346838938528,5500.0,5.5,0.06118557510944304,0.6858029858434939,0.5440388952441388,0.6858029858434939,0.14176409059935502,0.00933631419123625,0.004789873025574454,0.011735046551725057,0.004789873025574454
166,0.06533511161620234,0.788358091481271,0.4116116276917472,5533.333333333332,5.533333333333332,0.09169262637305549,0.6915735533765166,0.5438962232536965,0.6915735533765166,0.14767733012282014,0.009261201748763522,0.004967456847001708,0.011054660896699762,0.004967456847001708
167,0.000665243753123832,0.6943939337331057,0.6325935657431363,5566.666666666666,5.566666666666666,0.11016702332894696,0.6869091524024352,0.5442744682457029,0.6869091524024352,0.1426346841567323,0.009190506084221015,0.004858371953035278,0.010501220705799886,0.004858371953035278
168,0.053396426722450714,0.8485183744597481,0.33375556515930227,5600.0,5.6000000000000005,0.1234407268206042,0.6741614742358326,0.5448547094419744,0.6741614742358326,0.12930676479385816,0.009107808964902481,0.004535754111960046,0.009940169569776227,0.004535754111960046
169,0.28642085007433243,0.6947925632602804,0.6833455826074841,5633.333333333334,5.633333333333334,0.13479531491197214,0.6559092654103638,0.5435813956750323,0.6559092654103638,0.11232786973533149,0.008986654197343638,0.00411527478732638,0.009327594543829646,0.00411527478732638
170,0.3075198623174338,0.6795067239774187,0.7072386146270286,5666.666666666668,5.666666666666668,0.14235554265512707,0.6344626647624451,0.5397837650306526,0.6344626647624451,0.09467889973179244,0.008833208613929954,0.0036689713957140492,0.008750230783307908,0.0036689713957140492
171,-0.012954052456434792,0.6795067239774187,0.3289717017626643,5700.0,5.7,0.1412921547199768,0.6118328533214182,0.535505819982483,0.6118328533214182,0.0763270333389352,0.00869610902855306,0.003195808876015693,0.008371763632288297,0.003195808876015693
172,0.4884103808989492,0.6660078645508705,0.619002397168495,5733.333333333332,5.7333333333333325,0.12791817031574856,0.5899247927621339,0.5338183417654462,0.5899247927621339,0.05610645099668776,0.008633023070673757,0.0026694110263455967,0.008327267472044842,0.0026694110263455967
173,0.26737564970962036,0.6950971888303815,0.32263702550662,5766.666666666668,5.766666666666668,0.10288659228282597,0.570629154409578,0.5363547234527797,0.570629154409578,0.034274430956798274,0.008669802691727907,0.0021003451420821438,0.008637006858171805,0.0021003451420821438
174,0.45984220224583783,0.5536940485086942,0.9261424777226396,5800.0,5.8,0.07140396924680828,0.5556613390920556,0.5422991774953546,0.5556613390920556,0.013362161596701005,0.008786389512030243,0.0015556482977817602,0.009195711977554167,0.0015556482977817602
175,-0.019608838104904373,0.5146489856587743,0.43903251968388635,5833.333333333332,5.833333333333332,0.040072868873665894,0.5462934197208135,0.5490169945888302,0.5462934197208135,-0.002723574868016776,0.008933638694548166,0.001134527190144133,0.009850238736380754,0.001134527190144133
176,-0.02617553143694327,0.5188268843956274,0.3906470689635211,5866.666666666666,5.866666666666666,0.012999884966524211,0.5433793812235992,0.5532964154248141,0.5433793812235992,-0.009917034201214925,0.00906130077415916,0.0009366313575395617,0.010502630544791069,0.0009366313575395617
177,0.09985826724201363,0.3920442760253186,0.5486877134806459,5900.0,5.9,-0.00923236219766368,0.5477635923404572,0.5525437033617379,0.5477635923404572,-0.00478011102128062,0.009137924813633786,0.0010437702514577393,0.011146455805995928,0.0010437702514577393
178,-0.20777081537444078,0.4563816339509507,0.363218849079106,5933.333333333334,5.9333333333333345,-0.027386485146471937,0.560458490135749,0.5462303064964733,0.560458490135749,0.014228183639275693,0.009163057513406413,0.0014929930020425156,0.011817643808415376,0.0014929930020425156
179,-0.09374849892092679,0.47311352259026757,0.7632023029491437,5966.666666666668,5.966666666666668,-0.04123458608442732,0.5820731287112745,0.5375941548958976,0.5820731287112745,0.04447897381537691,0.009179315455465872,0.0022250373708480103,0.012528828922961378,0.0022250373708480103
180,-0.3112781055269127,0.559651157639938,0.3967884684494955,6000.0,6.0,-0.04955843142823981,0.6118791174369725,0.5337782259496482,0.6118791174369725,0.07810089148732435,0.009270580812420246,0.0030575561630214287,0.013253371935222679,0.0030575561630214287
181,-0.10530407469982749,0.5340544380931006,0.7269900245324148,6033.333333333332,6.033333333333332,-0.05180102272072865,0.6472782526496303,0.542298102111624,0.6472782526496303,0.10498015053800636,0.009520394350648671,0.003751784388153665,0.013949793497491453,0.003751784388153665
182,-0.05579582586502293,0.5335171756138645,0.7727001765511944,6066.666666666666,6.066666666666666,-0.04903281192388358,0.6841098179793592,0.5654966128430846,0.6841098179793592,0.1186132051362746,0.009945914575657766,0.004147568007206244,0.014578468358559835,0.004147568007206244
183,-0.059003265617976156,0.6429209447101168,0.37854514333461736,6100.0,6.1000000000000005,-0.04336141271557268,0.7177778215368528,0.5981344112793107,0.7177778215368528,0.1196434102575421,0.01046985512646061,0.004248058150934724,0.015100384773071903,0.004248058150934724
184,0.10791825496978757,0.6578019887534798,0.6079340217008173,6133.333333333334,6.133333333333334,-0.036929780380212045,0.7447099073041542,0.6306911955497787,0.7447099073041542,0.1140187117543755,0.010964724178225282,0.004181158798650461,0.015484969748308484,0.004181158798650461
185,-0.05377665241568039,0.7699880979924654,0.3140418423708685,6166.666666666668,6.166666666666668,-0.03168788716801999,0.7633957619555432,0.6554222943934005,0.7633957619555432,0.10797346756214266,0.011332773350025993,0.004085945510313214,0.015737027141290594,0.004085945510313214
186,0.14920849926818144,0.8251173544226513,0.6381617299764061,6200.0,6.2,-0.029769900842437007,0.7743437435628934,0.6703859201163387,0.7743437435628934,0.10395782344655469,0.011558014535697905,0.0040181256411869195,0.015915369663989275,0.0040181256411869195
187,-0.030366926967350615,0.8990599515086969,0.3658495058588595,6233.333333333332,6.2333333333333325,-0.03364142453001531,0.7788518827598242,0.6791882269393034,0.7788518827598242,0.09966365582052084,0.01169876735992213,0.003924780003990379,0.016114500640619048,0.003924780003990379
188,-0.02566297508532983,0.9113387404408665,0.35914684011079395,6266.666666666668,6.266666666666668,-0.04573874761931284,0.777483920282315,0.6876199131841245,0.777483920282315,0.08986400709819053,0.011838128055149905,0.0036839913809216403,0.016420625939699767,0.0036839913809216403
189,0.20551962978645114,0.8649022427343644,1.2084357626700477,6300.0,6.3,-0.06770271771513146,0.7695938611060246,0.6999527172352306,0.7695938611060246,0.06964114387079401,0.012032860597726795,0.0031791742770998013,0.016874785361624248,0.0031791742770998013
190,-0.3058209462803471,0.8551417708529322,0.8027431186623588,6333.333333333332,6.333333333333332,-0.09948710050709453,0.7543093058201134,0.71684487191574,0.7543093058201134,0.03746443390437337,0.012287832147666001,0.002373142494848328,0.01746214585872787,0.002373142494848328
191,0.026133754065115353,0.7687997656313454,0.9722863468998808,6366.666666666666,6.366666666666666,-0.1390395724331591,0.7320080603026149,0.7350143552070012,0.7320080603026149,-0.0030062949043863085,0.012556505744044802,0.001353223113737401,0.018128842838413473,0.001353223113737401
192,-0.25845652809196457,0.8134501152456628,0.5590634328572869,6400.0,6.4,-0.182568216718736,0.705105260618164,0.7484730858912189,0.705105260618164,-0.04336782527305483,0.012760403225178945,0.0003223399265590129,0.018805536010202017,0.0003223399265590129
193,-0.017952684333088262,0.651753296938911,0.8651147483487592,6433.333333333334,6.4333333333333345,-0.22470555540113335,0.6777738507066816,0.7517364342724543,0.6777738507066816,-0.07396258356577268,0.012829199812753793,-0.000482382859381448,0.019414483346071303,-0.000482382859381448
194,-0.031315530257556234,0.6572410494054655,0.9138338685885359,6466.666666666668,6.466666666666668,-0.25922501882624405,0.6548048453104163,0.7437890745316101,0.6548048453104163,-0.08898422922119387,0.012748844927091664,-0.0009107260628281977,0.019877555520922147,-0.0009107260628281977
195,-0.2943554850733957,0.7120801981797599,0.5805448494614147,6500.0,6.5,-0.2813812957709494,0.6400738797386359,0.7293630505449716,0.6400738797386359,-0.0892891708063357,0.012579215224162983,-0.0009698133237204772,0.020152439238569835,-0.0009698133237204772
196,0.0033238141981787785,0.6078320892607175,0.7878235124795535,6533.333333333332,6.533333333333332,-0.2904773065396256,0.6353364551342534,0.7160592282437624,0.6353364551342534,-0.08072277310950904,0.012421086008254085,-0.0007903863695516824,0.020270335255392367,-0.0007903863695516824
197,-0.5203120119579231,0.5667537986263997,0.5516308276494695,6566.666666666666,6.566666666666666,-0.29014260357777877,0.639976700452784,0.7098966851088965,0.639976700452784,-0.06991998465611249,0.012359677833919017,-0.0005305295886735303,0.02032793619165245,-0.0005305295886735303
198,-0.32005298201034765,0.5178362953935461,0.8383457231183808,6600.0,6.6000000000000005,-0.2860670091617909,0.6518443258344745,0.7127464626219933,0.6518443258344745,-0.06090213678751877,0.012428265812698966,-0.0002931008029036831,0.02043783509000483,-0.0002931008029036831
199,-0.4973878384561605,0.5885161593296412,0.587434333923119,6633.333333333334,6.633333333333334,-0.28321838197256305,0.6686351062990276,0.7227287693309009,0.6686351062990276,-0.05409366303187335,0.012609780028670529,-9.746244754516234e-05,0.020682389200715055,-9.746244754516234e-05
200,-0.5240508354933526,0.5898356697765276,0.4846133395771517,6666.666666666668,6.666666666666668,-0.28463934531701307,0.6887019686721052,0.7361486403730003,0.6887019686721052,-0.047446671700895116,0.012860652369878985,9.737326189894677e-05,0.021101770264838518,9.737326189894677e-05
201,-0.41821335017588945,0.5535978100800937,0.8779632048319493,6700.0,6.7,-0.2920144949472049,0.7107560152237337,0.749239355539277,0.7107560152237337,-0.038483340315543346,0.013133528800265968,0.0003443673014848611,0.021707474081233157,0.0003443673014848611
202,-0.47814790712433713,0.6917248242817822,0.5251628313874344,6733.333333333332,6.7333333333333325,-0.3060081500804821,0.7333877144972228,0.7593901876587844,0.7333877144972228,-0.026002473161561568,0.013392048719017691,0.0006676743022484457,0.02248556866813418,0.0006676743022484457
203,0.06349027322037315,0.7211938909283103,1.0407541832030227,6766.666666666668,6.766666666666668,-0.3250989270332807,0.7553086646501926,0.7660437081602972,0.7553086646501926,-0.01073504351010457,0.0136194898845348,0.0010490970911126865,0.02337325699543933,0.0010490970911126865
204,-0.3392383319767312,0.8255117095894121,0.5118636411474214,6800.0,6.8,-0.34503637316185176,0.7756058843034949,0.7706441785498193,0.7756058843034949,0.004961705753675605,0.013817386559697139,0.00143620713546874,0.024249286801932845,0.00143620713546874
205,-0.049411281275924264,0.7816810147458855,0.9300579820874355,6833.333333333332,6.833333333333332,-0.3614961186912143,0.7930978061022577,0.7751232965577958,0.7930978061022577,0.017974509544461892,0.013992191748727408,0.0017586005704051558,0.024986999979188518,0.0017586005704051558
206,-0.0398868329995323,0.7916442747866844,0.9741017709412096,6866.666666666666,6.866666666666666,-0.374118813987862,0.8054615662265606,0.780096046171904,0.8054615662265606,0.025365520054656643,0.014141719034970282,0.001943783613182643,0.025538104804388072,0.001943783613182643
207,-0.31871573855611285,0.9079333041685459,0.6582851180058202,6900.0,6.9,-0.38734579811758235,0.8095184356377917,0.7848747165019883,0.8095184356377917,0.024643719135803432,0.014259018351298133,0.0019232658610863372,0.02595908594536545,0.0019232658610863372
208,-0.016143939015566607,0.8920035621071801,0.9810642881845075,6933.333333333334,6.9333333333333345,-0.407006993081562,0.8028445246615311,0.7892720295609527,0.8028445246615311,0.013572495100578452,0.014350691785473636,0.0016347322441856954,0.02635636681267658,0.0016347322441856954
209,-0.5720105472303473,0.924097210884142,0.6932449771344473,6966.666666666668,6.966666666666668,-0.4365208079718663,0.785258993866068,0.7943273314843843,0.785258993866068,-0.009068337618316269,0.01443989150101435,0.0010463821822944324,0.02681679762380532,0.0010463821822944324
210,-0.6693928884539954,0.7120369450847875,0.8806657366748388,7000.0,7.0,-0.4758954937260711,0.7588184987774041,0.8005369174201825,0.7588184987774041,-0.041718418642778365,0.01454076663863588,0.00019863433675324665,0.027377719186931982,0.00019863433675324665
211,-0.9126070879418902,0.7641223990448421,0.566288106881693,7033.333333333332,7.033333333333332,-0.5221491627747495,0.7267467202898571,0.8062606635960314,0.7267467202898571,-0.07951394330617434,0.014635516283558168,-0.0007864496585437423,0.02801516067145534,-0.0007864496585437423
212,-0.5896083670446562,0.9192752414994907,0.6460743297147471,7066.666666666666,7.066666666666666,-0.5689580764601218,0.6927259643562741,0.8089485974711543,0.6927259643562741,-0.11622263311488024,0.014686125196353863,-0.0017510631538930441,0.028625426570001635,-0.0017510631538930441
213,-0.3348615658374014,0.7599406009628471,0.9645996491502807,7100.0,7.1000000000000005,-0.607185502104319,0.6607269850750227,0.8077373081762894,0.6607269850750227,-0.14701032310126672,0.014668250023477835,-0.0025664624149146177,0.029041936809405915,-0.0025664624149146177
214,-0.5505232556486898,0.791369168216965,0.6751823876266559,7133.333333333334,7.133333333333334,-0.6288391519472135,0.6342886066670534,0.8041631357105196,0.6342886066670534,-0.16987452904346612,0.014589868405623223,-0.0031713494816346492,0.029125659657207262,-0.0031713494816346492
215,-0.42083793126727914,0.6005106645884914,0.896507585106448,7166.666666666668,7.166666666666668,-0.6325150874067649,0.6152313573072614,0.80020868457659,0.6152313573072614,-0.18497732726932858,0.014478641874314906,-0.0035642934791528563,0.028877257638510685,-0.0035642934791528563
216,-0.7333828269188989,0.5897422349350053,0.4980390637629961,7200.0,7.2,-0.6250274234030896,0.603325838772106,0.796077948703343,0.603325838772106,-0.19275210993123704,0.014357565492723608,-0.0037622021300610727,0.0284676291191165,-0.0037622021300610727
217,-0.45325493523256966,0.5032249632244381,1.1735409273488486,7233.333333333332,7.2333333333333325,-0.6167171569466227,0.597575776165664,0.7904409434756566,0.597575776165664,-0.1928651673099926,0.01423830158562892,-0.003769190958902236,0.028140840264033472,-0.003769190958902236
218,-0.42620653972325284,0.5047996836251639,1.2216872381219614,7266.666666666668,7.266666666666668,-0.6140597588705473,0.5978940550147184,0.7828207890836557,0.5978940550147184,-0.18492673406893734,0.014134706559959444,-0.0035825204505714075,0.028059961322252937,-0.0035825204505714075
219,-1.0285545426226175,0.4917655521154293,0.5312624151221823,7300.0,7.3,-0.615728521334633,0.6057074942630875,0.7747807966626287,0.6057074942630875,-0.16907330239954121,0.014067872548192764,-0.0032010752473554164,0.02821973988053953,-0.0032010752473554164
220,-0.7724747380906585,0.4206944361978476,0.8335415634689319,7333.333333333332,7.333333333333332,-0.6146132631151787,0.6231320819890537,0.7681329437618238,0.6231320819890537,-0.14500086177277016,0.014046601110309639,-0.0026066621475844417,0.02847953175478952,-0.0026066621475844417
221,-0.6120201184323139,0.5961251623913181,0.6813289876399441,7366.666666666666,7.366666666666666,-0.6027145100288392,0.6515714219822301,0.763088763475768,0.6515714219822301,-0.11151734149353798,0.014053931817699048,-0.0017612341480522226,0.02865961626828981,-0.0017612341480522226
222,-0.5908795542255904,0.5467289858616586,0.9384492959703021,7400.0,7.4,-0.5743648833371631,0.6911372041271499,0.759593770112876,0.6911372041271499,-0.06845656598572614,0.014071896643533172,-0.0006553873961677207,0.028616751754794095,-0.0006553873961677207
223,-0.6806165665790934,0.6748604771164404,0.6029060402579678,7433.333333333334,7.4333333333333345,-0.5269209346041187,0.7412682484023009,0.7598215276915593,0.7412682484023009,-0.01855327928925843,0.014117626883435442,0.0006489588633630782,0.028278727544078997,0.0006489588633630782
224,-0.6842612464170107,0.6652165383470847,0.611482521606991,7466.666666666668,7.466666666666668,-0.4609169872311436,0.8013489695997986,0.7679079077775047,0.8013489695997986,0.033441061822293894,0.01424282515906979,0.0020401669688819473,0.02765846386282805,0.0020401669688819473
225,-0.5944770065296285,0.7479523845874654,0.666138098204011,7500.0,7.5,-0.38014468070079527,0.8703985041437656,0.7872463421775776,0.8703985041437656,0.08315216196618802,0.014498574377031339,0.003411482260179356,0.026844078388623103,0.003411482260179356
226,-0.6164266828668503,0.8116290632995874,0.5444560203974358,7533.333333333332,7.533333333333332,-0.29076384740740635,0.9463693713053759,0.8183675714492518,0.9463693713053759,0.12800179985612414,0.014903035171914561,0.0046931809062128954,0.025958750483330108,0.0046931809062128954
227,-0.35191540358637785,0.8151931276273855,0.8983528280633639,7566.666666666666,7.566666666666666,-0.1995740704697098,1.0259378029931199,0.8588211439547577,1.0259378029931199,0.16711665903836215,0.015433746802648909,0.005851642509773577,0.025112530892267226,0.005851642509773577
228,-0.4528784749169179,0.9117849886608959,0.6760400357615004,7600.0,7.6000000000000005,-0.11221930719754895,1.104935700248942,0.9044088416129913,1.104935700248942,0.20052685863595066,0.016039285937649354,0.006873426558250689,0.024366915611362047,0.006873426558250689
229,-0.1562450546770384,0.9838667602529284,0.9746835120697288,7633.333333333334,7.633333333333334,-0.03238428402474136,1.1789211360424916,0.9503584484273873,1.1789211360424916,0.22856268761510434,0.016653795975983682,0.0077532919645480385,0.023727081148323923,0.0077532919645480385
230,-0.07496465185635082,1.004440869317584,0.8783837179865478,7666.666666666668,7.666666666666668,0.03711484134299875,1.243478591564265,0.9916989080145796,1.243478591564265,0.2517796835496854,0.017206289491519023,0.008492076524403074,0.02317595296072127,0.008492076524403074
231,-0.2990675459368545,1.0807254496317606,0.7605833503930195,7700.0,7.7,0.09276625050416316,1.2945872466612895,1.0236730194706734,1.2945872466612895,0.2709142271906162,0.017632164762831904,0.009094980929364617,0.022721674889223477,0.009094980929364617
232,0.41480323213485015,1.3554003323722168,1.2281684582130468,7733.333333333332,7.7333333333333325,0.13108601109029228,1.3296119543447718,1.0431913350416482,1.3296119543447718,0.28642061930312357,0.017893135350514948,0.009563648158131105,0.022399916424586226,0.009563648158131105
233,0.2126447456312466,1.4553825039228474,0.922274044270496,7766.666666666668,7.766666666666668,0.1515332402018705,1.3485932505802534,1.0504959202945694,1.3485932505802534,0.29809733028568397,0.017994111020542117,0.009892997408042503,0.022225815242018634,0.009892997408042503
234,0.5857793595021785,1.5303406449499923,1.4388432777213536,7800.0,7.8,0.15815907813483523,1.3544816997229774,1.0490403905737862,1.3544816997229774,0.3054413091491912,0.017977420509165565,0.010081460278643107,0.02215557439941656,0.010081460278643107
235,0.301928968321424,1.5873855676019129,1.0907174155557335,7833.333333333332,7.833333333333332,0.15775463111607527,1.3514356808961203,1.0431455848378273,1.3514356808961203,0.30829009605829305,0.017892419621721254,0.010140475644390154,0.022098462307616484,0.010140475644390154
236,0.335551089457292,1.6044053400324088,1.152258766470433,7866.666666666666,7.866666666666666,0.1567392649958572,1.3424958657630366,1.0354697639795492,1.3424958657630366,0.30702610178348744,0.0177643097682478,0.010091359272350593,0.02194971684370963,0.010091359272350593
237,0.14269614578575446,1.5196387893711993,1.19325286846424,7900.0,7.9,0.1597975238590141,1.32882180227268,1.0263076973166794,1.32882180227268,0.30251410495600073,0.017586609686992515,0.009960960306325508,0.021610403218306075,0.009960960306325508
238,0.4820313397125027,1.5860719362898774,1.0744081118279134,7933.333333333334,7.9333333333333345,0.16967299696434168,1.3107612544699707,1.0145378612639995,1.3107612544699707,0.29622339320597124,0.01733787060240718,0.0097865569442725,0.02101366130243252,0.0097865569442725
239,-0.023023846870827442,1.1855889893725295,1.049870665229538,7966.666666666668,7.966666666666668,0.1865210582371175,1.289342173913427,0.9989084952381161,1.289342173913427,0.2904336786753109,0.017005671543360946,0.009623169637770641,0.020170446521653437,0.009623169637770641
240,-0.2650142686454222,1.1886575153446415,0.7394280297320762,8000.0,8.0,0.20746586692953495,1.2671013597219123,0.9789106164826272,1.2671013597219123,0.28819074323928506,0.01660221766960966,0.009543875548024095,0.019197455948861592,0.009543875548024095
241,-0.1140864446117096,1.033687424171956,0.9359334099745916,8033.333333333332,8.033333333333331,0.2280007984216248,1.248077223345099,0.955271391913068,1.248077223345099,0.292805831432031,0.01616618646285851,0.009629537635414086,0.018282349417038157,0.009629537635414086
242,-0.06360490894655309,1.0113119614936716,0.9262393871164146,8066.666666666666,8.066666666666666,0.24521645653546,1.2370728815457983,0.93026680341278,1.2370728815457983,0.3068060781330183,0.015753795576859422,0.009946015509258072,0.017589007950386308,0.009946015509258072
243,0.042230831365736694,1.2046892913331562,0.809869809898582,8100.0,8.1,0.2600374044626402,1.2382696853614867,0.9074340817841299,1.2382696853614867,0.33083560357735686,0.01542288999085418,0.01051792786188347,0.017175365932347825,0.01051792786188347
244,0.2141894233116382,1.1372795185044693,1.0570522104579592,8133.333333333332,8.133333333333333,0.2759941018841717,1.2537064838773009,0.8901763930358765,1.2537064838773009,0.3635300908414244,0.015213311446729947,0.011321376571602575,0.016994903999414758,0.011321376571602575
245,0.22303536011806516,1.1918259504937825,0.7539355784523631,8166.666666666666,8.166666666666666,0.2961063795445234,1.282467728467516,0.8800447606707295,1.282467728467516,0.40242296779678666,0.015131780720712262,0.012300244004624905,0.016958081898615494,0.012300244004624905
246,0.9716023324081698,1.2733413403563403,1.28145993200849,8200.0,8.2,0.321036628567887,1.3210019978007423,0.8761565493562111,1.3210019978007423,0.4448454484445312,0.015151515831627745,0.013385937114467316,0.016983767998059902,0.013385937114467316
247,0.560267873385485,1.3131462055760563,0.8584560108961975,8233.333333333332,8.233333333333333,0.3489031700090131,1.3643880736777625,0.8760770902709876,1.3643880736777625,0.4883109834067749,0.015228805575284195,0.014508781698037954,0.01702826589902521,0.014508781698037954
248,0.5292107875674532,1.332210133761158,0.8552229603588936,8266.666666666668,8.266666666666667,0.3751076512208211,1.4078310607094242,0.8771645249251959,1.4078310607094242,0.5306665357842283,0.015326282459483578,0.015604527441490545,0.017119120684993095,0.015604527441490545
249,0.4011149263790795,1.3865748649791931,0.9165288575169555,8300.0,8.3,0.39230473410421934,1.4476303332481022,0.877383255357104,1.4476303332481022,0.5702470778909982,0.015427008342951982,0.01661994186976051,0.01737477129570702,0.01661994186976051
250,0.2778098132689497,1.494775690709794,0.6951734562125435,8333.333333333334,8.333333333333334,0.39289260329022196,1.4816154484455213,0.875784384710037,1.4816154484455213,0.6058310637354843,0.015534440540484756,0.017515045322042205,0.017949580782333267,0.017515045322042205
251,0.4412308470334,1.4680276944217185,0.8761563534728867,8366.666666666668,8.366666666666669,0.374372108289652,1.5092651400965857,0.8733701201211815,1.5092651400965857,0.6358950199754042,0.015667091930430574,0.018251169125067752,0.018900833136661906,0.018251169125067752
252,0.047634386548292315,1.4404418245053106,0.7064229713060078,8400.0,8.4,0.3431431339419433,1.5312139631522879,0.8735124523209358,1.5312139631522879,0.6577015108313521,0.015850094196377142,0.018772395886193928,0.02008395526910603,0.018772395886193928
253,0.16989664522435946,1.499379957798296,0.8480202320969837,8433.333333333334,8.433333333333334,0.31170469383931193,1.5481928028732888,0.8800976323027289,1.5481928028732888,0.6680951705705599,0.016096406757602565,0.019019083524118872,0.02120118798838453,0.019019083524118872
254,0.17674660659210525,1.5047153696051923,0.8749315347003133,8466.666666666666,8.466666666666667,0.29050770342951476,1.560221965364309,0.8941324643125207,1.560221965364309,0.6660895010517883,0.01638621151914609,0.018978293298457894,0.02198782019702937,0.018978293298457894
255,0.44246307667802814,1.6888233854453154,0.8168927619889492,8500.0,8.5,0.2815481791783036,1.566606498097169,0.9121732691300579,1.566606498097169,0.6544332289671111,0.016667011775310266,0.01871396574207936,0.022372296596125454,0.01871396574207936
256,0.5393870766431453,1.595700097497192,1.0092462986302788,8533.333333333334,8.533333333333335,0.2785271798937131,1.5664852355324508,0.9281144480653619,1.5664852355324508,0.6383707874670889,0.016877876612077944,0.018339582714987097,0.02248603939811745,0.018339582714987097
257,0.42413076186093,1.6960971051668186,0.8400957424853415,8566.666666666666,8.566666666666666,0.27179550436423433,1.5593315259081806,0.9364940777821321,1.5593315259081806,0.6228374481260485,0.016977767368381306,0.01795904017211715,0.02255362344974427,0.01795904017211715
258,0.40137237030887624,1.5308382029663392,1.1400175432868132,8600.0,8.6,0.25363188519420715,1.545050953315639,0.9348536043907559,1.545050953315639,0.610197348924883,0.016959306935918624,0.01761952948407152,0.02276508810865222,0.01761952948407152
259,0.14343503942838534,1.6115985402642103,0.812851246027301,8633.333333333332,8.633333333333333,0.22153331361201745,1.5239638503178228,0.9241043916694536,1.5239638503178228,0.5998594586483692,0.01684307708786894,0.017305715425692186,0.023192299288121745,0.017305715425692186
260,-0.012769784938772762,1.6030800540802153,0.8168762552475707,8666.666666666666,8.666666666666666,0.17924388181879758,1.4971244832802306,0.9072808124990254,1.4971244832802306,0.5898436707812053,0.016659829317033234,0.016977580059230266,0.02376517729530319,0.016977580059230266
261,0.668142640012053,1.5954364936616925,1.3974593269155868,8700.0,8.700000000000001,0.135325434062239,1.4667243696101746,0.8878856402602547,1.4667243696101746,0.5788387293499199,0.016435531753032293,0.01661750360129132,0.024311328290837545,0.01661750360129132
262,0.24822090468870867,1.5411835786219958,0.9136034937708473,8733.333333333332,8.733333333333333,0.09933369936267648,1.4358426950794285,0.8687868691079889,1.4358426950794285,0.5670558259714397,0.016188391486781775,0.01624587309627381,0.02464689223328021,0.01624587309627381
263,0.2831802692788619,1.515194959820819,0.9446349376642751,8766.666666666668,8.766666666666667,0.07696789399618308,1.4074255381108542,0.8516953681773325,1.4074255381108542,0.5557301699335218,0.01593350059979652,0.015902839721702117,0.024681597034884515,0.015902839721702117
264,-0.13070509670842,1.35805539633627,0.7973062841693304,8800.0,8.8,0.06710396683956772,1.3833423697028857,0.8371232518655555,1.3833423697028857,0.5462191178373302,0.015687980728023136,0.015622684405774063,0.024478111438223756,0.015622684405774063
265,-0.1025812239294531,1.3481065108864936,0.8138095134318689,8833.333333333334,8.833333333333334,0.06357932865306776,1.3644003811540752,0.8249694662520368,1.3644003811540752,0.5394309149020384,0.0154728788351084,0.015422320631793477,0.024208029322015295,0.015422320631793477
266,-0.08713213327325181,1.3382910396093868,0.7937457449426051,8866.666666666668,8.866666666666669,0.06087387142944367,1.3512507140839647,0.8153254097889383,1.3512507140839647,0.5359253042950264,0.015309077557241738,0.015310879266504799,0.02402423877436637,0.015310879266504799
267,-0.200960380449468,1.320756605483321,0.6234636061582313,8900.0,8.9,0.05876924417782209,1.3451509123769583,0.8090385118035514,1.3451509123769583,0.5361124005734069,0.015212783919472297,0.01530029990672686,0.023956346601142604,0.01530029990672686
268,0.008663108436313648,1.235371534956511,0.8574975896370498,8933.333333333334,8.933333333333334,0.062183939026148695,1.3476079091468316,0.8080979850710666,1.3476079091468316,0.539509924075765,0.015199569343815843,0.015387250143553386,0.02390959491786138,0.015387250143553386
269,0.009903287732072132,1.2879827932256764,0.5827043375329402,8966.666666666666,8.966666666666667,0.07709098025856824,1.3593260254070507,0.8153607670625861,1.3593260254070507,0.5439652583444646,0.015289641822838089,0.015529077514535186,0.023750310201774556,0.015529077514535186
270,0.2336584574970069,1.248062142854389,0.9130819870040241,9000.0,9.0,0.10629529855832713,1.3798716920551426,0.833082500391155,1.3798716920551426,0.5467891916639877,0.015501154044187618,0.01566533744425424,0.0234045762991844,0.01566533744425424
271,0.0664636982112018,1.331598736413101,0.6800109203983296,9033.333333333334,9.033333333333335,0.1475465548083735,1.408260122811748,0.8611585535287443,1.408260122811748,0.5471015692830037,0.015836057407917842,0.01577148327978324,0.022912535273863596,0.01577148327978324
272,0.05526091159453187,1.34603526896942,0.6675049227614976,9066.666666666666,9.066666666666666,0.19372813593130203,1.4431669718412097,0.896456674122945,1.4431669718412097,0.5467102977182646,0.01627186653892723,0.015879810819248583,0.022425634324405943,0.015879810819248583
273,0.2621587508932406,1.371930470296861,1.1728262205697753,9100.0,9.1,0.23477961431172348,1.4823082143744866,0.933771610634131,1.4823082143744866,0.5485366037403555,0.016765380650158628,0.016043550347060818,0.022148893061885777,0.016043550347060818
274,0.07883679486754284,1.4093245569873984,0.8680492606301194,9133.333333333332,9.133333333333333,0.26188831185699873,1.5221640698103123,0.9680771856794058,1.5221640698103123,0.5540868841309065,0.017267059696472218,0.016281781882049068,0.02223423811225765,0.016281781882049068
275,0.41455695594277037,1.49786203138948,0.9398810346323621,9166.666666666666,9.166666666666666,0.27278334556532485,1.5589631112373021,0.9968464545642268,1.5589631112373021,0.5621166566730753,0.01773762148706431,0.016555612691194058,0.022667798912770334,0.016555612691194058
276,0.06099892425188752,1.5667763615979737,0.6849976543203549,9200.0,9.200000000000001,0.27417419779412283,1.5902199910239372,1.0208741678885458,1.5902199910239372,0.5693458231353914,0.018156700658539315,0.01679026107517331,0.023236342884996704,0.01679026107517331
277,0.3574355876758786,1.5605728648496306,1.1333598618726004,9233.333333333332,9.233333333333333,0.27792751765179385,1.6152886301302722,1.0432298109611504,1.6152886301302722,0.5720588191691218,0.01852364028410745,0.01690962359154256,0.023632266634103047,0.01690962359154256
278,0.35800938894162676,1.5788961561711268,1.1757340459323187,9266.666666666668,9.266666666666667,0.2934549929490226,1.6344782804970024,1.0674945961136917,1.6344782804970024,0.5669836843833107,0.018855573834337804,0.016847568202132655,0.02362873023233534,0.016847568202132655
279,0.24215618100373554,1.6708763980817531,0.9749592613241219,9300.0,9.3,0.32346597883301625,1.6480219761573192,1.096532169540626,1.6480219761573192,0.5514898066166931,0.019181193162795773,0.016546327675881583,0.02316737924105635,0.016546327675881583
280,0.777466486150254,1.8366644425413425,1.3614577323253743,9333.333333333334,9.333333333333334,0.36589493974927584,1.656071660639369,1.1319049244376942,1.656071660639369,0.5241667362016749,0.019527316823958783,0.015971680022667398,0.022307514128676646,0.015971680022667398
281,0.19116983996316192,1.7522494264164885,0.9314101923089387,9366.666666666668,9.366666666666669,0.4170947795953997,1.6591449574945816,1.1730677189479453,1.6591449574945816,0.4860772385466363,0.019900406157247263,0.01514586082496618,0.021150210372035485,0.01514586082496618
282,0.23800594719136525,1.6780016416339776,1.20575471108255,9400.0,9.4,0.4717657786984917,1.6578715278255995,1.216182453378557,1.6578715278255995,0.44168907444704253,0.02027080762874513,0.014168497270385182,0.019832840576317658,0.014168497270385182
283,-0.015788885401538708,1.6546160430767716,0.9337762949686107,9433.333333333334,9.433333333333334,0.5221021286206992,1.6522133081265362,1.2544610712717472,1.6522133081265362,0.397752236854789,0.02057679118344544,0.013188200748349664,0.018538126303447193,0.013188200748349664
284,-0.010729852193731541,1.645810707678675,0.9944354085099517,9466.666666666666,9.466666666666667,0.5604273772619409,1.6413452100568602,1.2815641841724623,1.6413452100568602,0.35978102588439786,0.020758905562507896,0.012323473077618156,0.01743281338601538,0.012323473077618156
285,0.9220029494071609,1.67663629981488,1.5022113234925794,9500.0,9.5,0.5835709476107257,1.6245754940133488,1.2957135553043468,1.6245754940133488,0.32886193870900193,0.020801897903938923,0.011594983419212744,0.016581671880763173,0.011594983419212744
286,0.463626263557092,1.67732263472615,1.16245481232112,9533.333333333334,9.533333333333335,0.5938881942611675,1.6024352672676587,1.3003390741451435,1.6024352672676587,0.30209619312251523,0.02074387313579103,0.010939064710467813,0.015941984476423,0.010939064710467813
287,0.6104228460165576,1.5401126715926787,1.369452796880695,9566.666666666666,9.566666666666666,0.5959945174519783,1.5771053435175937,1.3004385491796424,1.5771053435175937,0.27666679433795127,0.020642020562948497,0.010299560272290825,0.015445796900534992,0.010299560272290825
288,0.4882697500714458,1.5768294840270163,1.1377339645808187,9600.0,9.6,0.5928476138177062,1.5520005904301444,1.2983689249381394,1.5520005904301444,0.253631665492005,0.02052996507145248,0.009710940325812142,0.015082760094075299,0.009710940325812142
289,1.2076503031379762,1.5973544483540136,1.7468209319368815,9633.333333333332,9.633333333333333,0.5846715063225956,1.5307504162869503,1.2934190762955389,1.5307504162869503,0.23733133999141143,0.02041183241381446,0.009281439026183462,0.014908826864942283,0.009281439026183462
290,1.2688236592756001,1.591329433408223,1.7923217644272438,9666.666666666666,9.666666666666666,0.5711108715256265,1.5163107858806224,1.2850218754729381,1.5163107858806224,0.2312889104076843,0.02029281527063327,0.009098423632237453,0.014983361874721149,0.009098423632237453
291,0.5649193204773715,1.5833280600566177,1.2197543593747233,9700.0,9.700000000000001,0.5536745257660733,1.5107133625936393,1.2748724481878484,1.5107133625936393,0.2358409144057909,0.02019741136913875,0.009175396579747641,0.015307336805693019,0.009175396579747641
292,0.7504657220839004,1.585860868887338,1.2998975738185892,9733.333333333332,9.733333333333333,0.5354281243499937,1.5149344668009863,1.2652498963347896,1.5149344668009863,0.24968457046619674,0.02014862916475685,0.00948719370817699,0.01582484959258311,0.00948719370817699
293,0.4161801597470445,1.4663520200689,1.041625125855811,9766.666666666668,9.766666666666667,0.5191769417220086,1.5285656450991087,1.2568209296765076,1.5285656450991087,0.27174471542260115,0.020144592650709642,0.010010733093045655,0.016458572957179826,0.010010733093045655
294,0.5262037990802401,1.4024819949833562,1.407655372766298,9800.0,9.8,0.5074333137519951,1.5500276717742334,1.2497236707150419,1.5500276717742334,0.3003040010591915,0.02017318467302558,0.010705332240689236,0.017116946363497774,0.010705332240689236
295,-0.02147349798444678,1.3401969563622163,1.016864206704509,9833.333333333334,9.833333333333334,0.5033060200004801,1.577636468969656,1.246060829675468,1.577636468969656,0.331575639294188,0.02024490621506552,0.011482811396563833,0.01769606025000646,0.011482811396563833
296,-0.02533577064857278,1.3552536987095862,1.039786802310114,9866.666666666668,9.866666666666669,0.5089714258426646,1.6104518623007442,1.2494299345737714,1.6104518623007442,0.36102192772697284,0.020394937341379,0.012238333432157461,0.018132480569682533,0.012238333432157461
297,0.6384680285039168,1.5681706462934302,1.1164422217749892,9900.0,9.9,0.5230499049590506,1.6480092686071497,1.2615964904843027,1.6480092686071497,0.386412778122847,0.02064817673428406,0.012918068311793478,0.018457671638024836,0.012918068311793478
298,0.1909785728745708,1.5204416019344045,0.9389816731329387,9933.333333333334,9.933333333333334,0.5412319951225567,1.6894550573980356,1.2803493614197434,1.6894550573980356,0.40910569597829216,0.020986829655202276,0.013547536268516217,0.018761679472085676,0.013547536268516217
299,0.31016757753214586,1.5083345504127532,1.4579435079001088,9966.666666666666,9.966666666666667,0.5592605876765717,1.7328032940381746,1.3006108830324232,1.7328032940381746,0.43219241100575134,0.02135231891324118,0.014189994225472602,0.019106499081594577,0.014189994225472602
300,0.6507777538457885,1.8108255647541671,1.2460361200635335,10000.0,10.0,0.5741313748392897,1.7745084986259567,1.3173331522788496,1.7745084986259567,0.4571753463471071,0.021676587313384822,0.014869834368202188,0.019494885630670512,0.014869834368202188
301,0.8905843631225233,1.8285957966896076,1.4730808575745065,10033.333333333334,10.033333333333335,0.5838214339188745,1.8097976852539146,1.3278565419060395,1.8097976852539146,0.4819411433478751,0.02191408075291647,0.015526190271754498,0.01988880377853558,0.015526190271754498
302,0.9386443821076036,1.824888061810083,1.493068758199969,10066.666666666666,10.066666666666666,0.5872346895471737,1.8338082315711202,1.332351282131641,1.8338082315711202,0.5014569494394792,0.022051847516368926,0.016031391799418027,0.02023176973702815,0.016031391799418027
303,0.7589059425947833,1.9310868100683976,1.278650715448458,10100.0,10.1,0.5833336031142079,1.8427586241756828,1.3326070775165546,1.8427586241756828,0.5101515466591282,0.022101383289621166,0.016247670397777223,0.02048860337671459,0.016247670397777223
304,1.0986708115518355,2.012906721217518,1.7168389379413682,10133.333333333332,10.133333333333333,0.5702750705980296,1.8349363290916418,1.3306590318341263,1.8349363290916418,0.5042772972575156,0.022087692980993768,0.016083037393061838,0.020681482071834272,0.016083037393061838
305,0.7762327720292187,2.0852363679600705,1.2667313251671977,10166.666666666666,10.166666666666666,0.547342359922192,1.8116670423043433,1.3279902051445858,1.8116670423043433,0.4836768371597575,0.022036850240319053,0.01553599104699192,0.020855496297464683,0.01553599104699192
306,0.1445831222484197,1.809725540267453,1.5218023513769574,10200.0,10.200000000000001,0.5186909945443509,1.7774533075589207,1.32496897439156,1.7774533075589207,0.4524843331673607,0.02195769877191556,0.014715540262594907,0.020983832215733106,0.014715540262594907
307,0.4273573704855366,1.9153401217942068,1.1945844223285886,10233.333333333332,10.233333333333333,0.49501735388976903,1.7385117641167014,1.320899274335475,1.7385117641167014,0.41761248978122634,0.021831701712553334,0.013804699717627123,0.020899629587852197,0.013804699717627123
308,0.39978758586066504,1.8987783172037616,1.1723399338388232,10266.666666666668,10.266666666666667,0.4911849978936436,1.7005362062658502,1.3152845957089596,1.7005362062658502,0.3852516105568906,0.021627839595322676,0.012972593800452143,0.020320714073339803,0.012972593800452143
309,0.3274613025090247,1.7649053256468934,1.1170681238237927,10300.0,10.3,0.5197221832817859,1.6669812773406985,1.3088753225172634,1.6669812773406985,0.3581059548234351,0.021329645998693202,0.01230082649969202,0.018988581495559122,0.01230082649969202
310,0.19084195352558794,1.7091887344812322,1.0610391657263865,10333.333333333334,10.333333333333334,0.5824503037576427,1.638401212089936,1.3026951868982148,1.638401212089936,0.3357060251917212,0.02094650873619291,0.011781431446076773,0.016868769083038398,0.011781431446076773
311,0.5931039646720629,1.5140657858319377,1.4665572352367762,10366.666666666668,10.366666666666669,0.6672224623757406,1.6132334918454478,1.2963599085490787,1.6132334918454478,0.31687358329636917,0.020505550449215613,0.01137244702703777,0.014243960328777016,0.01137244702703777
312,0.08729571598388658,1.4985595793549487,1.1502674756880875,10400.0,10.4,0.7547064570384547,1.5899730870832063,1.2882897646378209,1.5899730870832063,0.3016833224453854,0.02004141826578091,0.011054242793783923,0.011578866936212805,0.011054242793783923
313,0.4354442378130923,1.3906846911447341,1.4682989977125736,10433.333333333334,10.433333333333334,0.8299146158210501,1.5693504522429294,1.2775621890336353,1.5693504522429294,0.2917882632092941,0.019592030110667825,0.010852491801580863,0.00926764144467836,0.010852491801580863
314,0.42543496781051926,1.3986704823390503,1.5301276314378722,10466.666666666666,10.466666666666667,0.8892855878563024,1.5548246184005017,1.2652486817392026,1.5548246184005017,0.2895759366612991,0.019195263483703852,0.010826365708641745,0.007464459225045583,0.010826365708641745
315,0.8748824796747059,1.6077600360929787,1.1716676385587932,10500.0,10.5,0.9401719814573166,1.5509889480574,1.2543912067332752,1.5509889480574,0.29659774132412475,0.018884181359117663,0.011028369085554258,0.006068724203076958,0.011028369085554258
316,1.2096608095286308,1.5307718367286505,1.478413165146781,10533.333333333334,10.533333333333335,0.9948177898826053,1.5609242396334577,1.248904048223441,1.5609242396334577,0.3120201914100167,0.01868185036813407,0.011457270760291115,0.004830325504657307,0.011457270760291115
317,1.6721159619990924,1.773312634543204,1.2756504185990307,10566.666666666666,10.566666666666666,1.0618501468231034,1.5840760735751553,1.2515960481165191,1.5840760735751553,0.3324800254586362,0.018594781460310794,0.012042260722006821,0.0035255489877878492,0.012042260722006821
318,1.7385483735344955,1.557003809752434,1.6667648889376971,10600.0,10.6,1.1392297957121025,1.6159399091214188,1.2620181256761118,1.6159399091214188,0.353921783445307,0.01860649048395145,0.012678133945621171,0.0021268109318223006,0.012678133945621171
319,0.9525090563735694,1.5264705995715757,0.991172733519897,10633.333333333332,10.633333333333333,1.2130573744809565,1.6498605028331321,1.275744951356276,1.6498605028331321,0.37411555147685616,0.01867898732198775,0.013286180040333497,0.0008629115938131881,0.013286180040333497
320,0.9168455921686973,1.5366361780650535,0.9288466022067539,10666.666666666666,10.666666666666666,1.263693706909452,1.6799170475415803,1.2864029385637845,1.6799170475415803,0.3935141089777958,0.0187703366458681,0.013845862005513855,0.00011768735996083412,0.013845862005513855
321,1.0798052548327344,1.5868474449673764,0.9605729167371179,10700.0,10.700000000000001,1.276582414106967,1.7034400977465296,1.2898167637781777,1.7034400977465296,0.41362333396835194,0.01886295689508529,0.014372652136686138,0.00020699181700974578,0.014372652136686138
322,0.932918879194786,1.6116650784231206,1.0019629778205354,10733.333333333332,10.733333333333333,1.2523893207001262,1.7221073412782328,1.2876577123736384,1.7221073412782328,0.4344496289045945,0.018982328179597066,0.014870879386555525,0.0011471321056993715,0.014870879386555525
323,1.1541257746597795,1.6945684515156978,1.294454733911384,10766.666666666668,10.766666666666667,1.2093871863372705,1.740745049916768,1.287844152571961,1.740745049916768,0.452900897344807,0.019190047095571885,0.015296468764245747,0.0025738591667880182,0.015296468764245747
324,1.0725778842436728,1.7523274202286532,1.20663632226753,10800.0,10.8,1.173970690201651,1.7640031054336636,1.3003776074903266,1.7640031054336636,0.46362549794333696,0.019548049443086576,0.015560374244944622,0.003916991080455778,0.015560374244944622
325,1.5619201781489038,1.7936443358479501,1.6898869958484384,10833.333333333334,10.833333333333334,1.1642805952088704,1.7929699292650543,1.3301208741124995,1.7929699292650543,0.4628490551525548,0.020065401292303206,0.015594704753890864,0.004742970365179482,0.015594704753890864
326,1.5616728968100682,1.8001710993125066,1.6962666293400528,10866.666666666668,10.866666666666669,1.1788008651599544,1.8239556577670946,1.3717325268515757,1.8239556577670946,0.4522231309155189,0.02066512879820816,0.015428392505381843,0.005013226705912146,0.015428392505381843
327,1.34214201930846,1.842219628535481,1.3670985440813703,10900.0,10.9,1.198253863771381,1.849962358653148,1.4116977482674777,1.849962358653148,0.4382646103856702,0.02120962087023623,0.015179130891355062,0.0050662618869440025,0.015179130891355062
328,1.3259942160161369,1.8573452152041,1.3197308391817866,10933.333333333334,10.933333333333334,1.198407743050862,1.8638558759501025,1.436249564406446,1.8638558759501025,0.4276063115436566,0.021573029642839598,0.014962348667970105,0.005364395381338148,0.014962348667970105
329,1.261926941551866,1.931962471022655,1.1956132405057966,10966.666666666666,10.966666666666667,1.1640273164120616,1.861469361941816,1.438943860702512,1.861469361941816,0.4225255012393039,0.021705453850686087,0.014807537851065736,0.0062092111310368195,0.014807537851065736
330,0.7994770359508663,1.7300331689862731,1.5405493557438115,11000.0,11.0,1.0954590891403881,1.8427994204614873,1.4228719197956463,1.8427994204614873,0.41992750066584095,0.021644948271689387,0.014643482661575462,0.00759925360925949,0.014643482661575462
331,0.8437308927625042,1.8930721544575428,1.2292376088009964,11033.333333333336,11.033333333333337,1.0059818106239276,1.8108512356880262,1.3969521890818142,1.8108512356880262,0.413899046606212,0.02147443518086951,0.014352343887488633,0.009268702632059018,0.014352343887488633
332,1.1868393135835025,2.040883812915613,1.290792174332345,11066.666666666664,11.066666666666665,0.9141112042372304,1.7696685350790762,1.3694597400810629,1.7696685350790762,0.4002087949980133,0.02125628745739244,0.013862282579249744,0.010834281495723635,0.013862282579249744
333,1.6552952071327252,1.900464377954861,1.9246030793051287,11100.0,11.1,0.835789330275403,1.722972478545915,1.343471434962148,1.722972478545915,0.37950104358376713,0.020993854530233527,0.013211059180968572,0.011960387040878696,0.013211059180968572
334,1.0739142815212934,1.9984023697459126,1.30896002216359,11133.333333333332,11.133333333333333,0.7782689018239776,1.673217805761815,1.3168529424917017,1.673217805761815,0.3563648632701133,0.020646804943960522,0.01251676885834674,0.012499105034580073,0.01251676885834674
335,0.8336633143618891,1.8179222469313439,1.3918606606250237,11166.666666666664,11.166666666666664,0.7374122935309543,1.621056640805859,1.285307699846279,1.621056640805859,0.3357489409595802,0.020176134354478674,0.011891295209520678,0.012557347467425237,0.011891295209520678
336,0.5386748160371264,1.7366640981660182,1.1435944152622806,11200.0,11.200000000000001,0.7019114903554055,1.5661470752242852,1.2458668728567899,1.5661470752242852,0.3202802023674953,0.01957826412013892,0.0113840088499923,0.01241140216550898,0.0113840088499923
337,0.6798009815720539,1.548056237425988,1.5228506169599132,11233.333333333332,11.233333333333333,0.663723015593873,1.5091217030268789,1.1997259102312485,1.5091217030268789,0.30939579279563034,0.018895871086838843,0.010975680870248321,0.012281089807876825,0.010975680870248321
338,0.6828472811380676,1.5325801933930063,1.5320248530696403,11266.666666666668,11.266666666666667,0.6261709949580462,1.4529648438989538,1.1528162059780935,1.4529648438989538,0.3001486379208602,0.018205063955944577,0.010607637019137453,0.01214780149136814,0.010607637019137453
339,0.30943079237292237,1.4535037073180475,1.118066686623075,11300.0,11.3,0.6013080930918083,1.4024672271820873,1.1121509459921146,1.4024672271820873,0.29031628118997266,0.01757527021763589,0.010249983511959871,0.011803687437401155,0.010249983511959871
340,0.5331978149580063,1.2889659140460807,1.2551604415204614,11333.333333333336,11.333333333333336,0.5991798941745013,1.3621797971893541,1.0802753016780713,1.3621797971893541,0.2819044955112828,0.017024687208049765,0.009968168751303913,0.011077280660813415,0.009968168751303913
341,0.2985526482641665,1.2754800667544788,0.7531931988452579,11366.666666666668,11.366666666666669,0.6202443177001232,1.3345072397295332,1.0537921365078982,1.3345072397295332,0.28071510322163507,0.016518025110575103,0.009901829380634476,0.009990658052503642,0.009901829380634476
342,0.7912840843069096,1.293855898395344,1.0774094931616824,11400.0,11.4,0.6570247686739153,1.3193248345629622,1.0280664335704222,1.3193248345629622,0.2912584009925401,0.016019462801858727,0.01014793143819776,0.008721805564446315,0.01014793143819776
343,0.3275979218579319,1.2012678649131803,0.797212221842627,11433.333333333336,11.433333333333335,0.7006477720873701,1.3151711681990141,1.0032335118457227,1.3151711681990141,0.3119376563532914,0.015552863354550778,0.010658130212440838,0.0074726431816364595,0.010658130212440838
344,0.29174900468468906,1.2208739780931364,0.7642371174264591,11466.666666666664,11.466666666666665,0.7455938718024826,1.3208186275930551,0.985364847238306,1.3208186275930551,0.33545378035474915,0.015207683215230845,0.011255917136356815,0.006377676656436506,0.011255917136356815
345,0.8696386389327482,1.233321843445643,1.1164946146992907,11500.0,11.5,0.790510321875623,1.335891940213312,0.9819060800579585,1.335891940213312,0.3539858601553535,0.015081014595684124,0.011758443496476218,0.005482973741502246,0.011758443496476218
346,0.633971825929132,1.3119142962540236,0.879730989728223,11533.333333333336,11.533333333333337,0.8363113414918454,1.3601860600887778,0.9958654569904719,1.3601860600887778,0.36432060309830594,0.015207318746820343,0.012091857919858675,0.004768824246369194,0.012091857919858675
347,1.5200115997843906,1.43232948966959,1.3589217200851722,11566.666666666664,11.566666666666665,0.8834299375478625,1.3925249482120592,1.0235946373259344,1.3925249482120592,0.3689303108861248,0.015534556057013212,0.012311222970996839,0.004194780022285829,0.012311222970996839
348,0.7655405829794636,1.3460907747546518,0.8649823815340834,11600.0,11.6,0.9299519726038602,1.4304245164848917,1.057069667731313,1.4304245164848917,0.3733548487535787,0.01595761811559936,0.012537530969437485,0.003747040674332998,0.012537530969437485
349,0.8550808123035724,1.3649368261370174,0.9284826058016001,11633.333333333332,11.633333333333333,0.971794654555388,1.4710391661085405,1.0879813210044496,1.4710391661085405,0.3830578451040909,0.016373180281444858,0.012887207897194953,0.003460309059445656,0.012887207897194953
350,0.8721883147831402,1.377039794914611,0.9672533697933274,11666.666666666664,11.666666666666664,1.0052853459227054,1.5125370030308674,1.1112456950812464,1.5125370030308674,0.401291307949621,0.016721347657482778,0.01342809124273477,0.0033842961883287326,0.01342809124273477
351,0.9732614022570318,1.4300089410643189,0.8787322646986228,11700.0,11.700000000000001,1.0311383015502615,1.5544438705343921,1.1275638000612538,1.5544438705343921,0.42688007047313836,0.017006960125201448,0.014132683181931392,0.003494131212211725,0.014132683181931392
352,1.0537636175429952,1.4432026908989932,1.3644179325490673,11733.333333333332,11.733333333333333,1.0562236464385892,1.5964759011768124,1.1438385135773945,1.5964759011768124,0.45263738759941785,0.017294897897880246,0.014840715166441375,0.0036256955700652302,0.014840715166441375
353,0.8427710869616755,1.5420628136445191,1.036883566205484,11766.666666666668,11.766666666666667,1.0895132257243736,1.6371454293647754,1.1689765888792063,1.6371454293647754,0.46816884048556906,0.017664266646032184,0.01531719663562228,0.0035448892324903424,0.01531719663562228
354,1.4442257083507237,1.7185968278669277,1.4016610710904962,11800.0,11.8,1.134663723568924,1.6737360794791416,1.2065524984170013,1.6737360794791416,0.4671835810621403,0.018138561126434912,0.015414393234549155,0.003119302130308183,0.015414393234549155
355,0.9086240051602908,1.6427287761759697,1.0754709549620962,11833.333333333336,11.833333333333336,1.186628210212143,1.7035558895074203,1.25104597519761,1.7035558895074203,0.45250991430981036,0.018653375269727598,0.015187234354594367,0.0024177411051547666,0.015187234354594367
356,0.8760265364933728,1.6620743151586055,1.0574477889983827,11866.666666666668,11.866666666666669,1.2355369564304304,1.7250065057236526,1.2918339774450782,1.7250065057236526,0.43317252827857433,0.01909891107519208,0.014831665433594345,0.001639226386877742,0.014831665433594345
357,1.158656733707681,1.6631309235439566,1.4056249675213288,11900.0,11.9,1.273826640061601,1.7377622817583063,1.3209831553974836,1.7377622817583063,0.4167791263608227,0.01939708025102616,0.014515742488514602,0.0009524801763983358,0.014515742488514602
358,0.9962177077599566,1.8068296639514037,1.1106790001005074,11933.333333333336,11.933333333333335,1.300960640338036,1.742658629977596,1.3377585334267577,1.742658629977596,0.40490009655083825,0.0195434346140093,0.014277031454202628,0.00038405567851737077,0.014277031454202628
359,1.433662447983904,1.9627076332625626,1.2792782800199114,11966.666666666664,11.966666666666665,1.3229482515489457,1.7415069015775746,1.3471575843039307,1.7415069015775746,0.39434931727364386,0.019589396974465413,0.014051370187736563,-0.00017613457323967948,0.014051370187736563
360,1.3330088811034113,1.9790343745899477,1.1844421309257036,12000.0,12.0,1.3475627623011388,1.7362649165677124,1.3552966169200495,1.7362649165677124,0.3809682996476629,0.01959560771945809,0.013754088171141488,-0.0008780654181923813,0.013754088171141488
361,1.7044285203546594,1.7469132186696497,1.7120602076352682,12033.333333333336,12.033333333333337,1.3788160747644163,1.727765720639381,1.3660287879820363,1.727765720639381,0.36173693265734475,0.019601508328350566,0.013320910404242171,-0.0018005567654025886,0.013320910404242171
362,1.7376862854158175,1.7409954977871094,1.744416997972025,12066.666666666664,12.066666666666665,1.4140345668433891,1.7152240697615866,1.3802299560745546,1.7152240697615866,0.334994113687032,0.01962355050193426,0.01270926351585383,-0.002886776021329682,0.01270926351585383
363,1.164216783158979,1.6517092335267898,1.131031084650871,12100.0,12.1,1.4445329003755305,1.697119923209037,1.3958281931413739,1.697119923209037,0.3012917300676632,0.01965683209344254,0.011920521201338049,-0.003945978753024548,0.011920521201338049
364,1.4468940319329477,1.6949259443367848,1.4095465602058503,12133.333333333332,12.133333333333333,1.4593859838377092,1.6727274193342578,1.4078166730444268,1.6727274193342578,0.264910746289831,0.019669304511914787,0.01104183377274198,-0.004723312711838562,0.01104183377274198
365,1.161838743237157,1.6549566613072546,1.2903997002165386,12166.666666666664,12.166666666666664,1.4516249951907632,1.6433962175582668,1.4105099987266774,1.6433962175582668,0.23288621883158944,0.01961587661057831,0.010232129264190492,-0.005030570521725109,0.010232129264190492
366,1.6168689949705706,1.6210218991783123,1.615962380282595,12200.0,12.200000000000001,1.4241361537501878,1.6130580345625338,1.4022429601600894,1.6130580345625338,0.2108150744024444,0.01948142694613586,0.00963182611093484,-0.004876965530714784,0.00963182611093484
367,1.4049986008428412,1.6498394650395534,1.296205796654239,12233.333333333332,12.233333333333333,1.3897599926578554,1.5873032059643837,1.387724405144179,1.5873032059643837,0.19957880082020463,0.01930678547315843,0.009285213797589854,-0.00448211501794997,0.009285213797589854
368,1.3584817433421263,1.6432856373520062,1.265820378596345,12266.666666666668,12.266666666666667,1.3634453220284086,1.5711098520262992,1.3745288746472928,1.5711098520262992,0.19658097737900637,0.019160156301327506,0.009156873061887288,-0.004123367214392104,0.009156873061887288
369,1.6027021223432047,1.555387242484349,1.4578320385556447,12300.0,12.3,1.3524121984321547,1.5667346982076324,1.3674329658280764,1.5667346982076324,0.19930173237955606,0.019088080095420127,0.009200123914318603,-0.003934553270833155,0.009200123914318603
370,1.4544863753215482,1.5828747668443048,1.2537030103223488,12333.333333333336,12.333333333333336,1.3526035698680952,1.5731271336377326,1.3667073099446334,1.5731271336377326,0.2064198236930992,0.01910265375306174,0.009378386496613182,-0.0038295296298264895,0.009378386496613182
371,1.5691043322414933,1.6077735028621818,1.6452747957120202,12366.666666666668,12.366666666666669,1.3533222632807071,1.586922937507694,1.3708245971680555,1.586922937507694,0.2160983403396386,0.019205128875795313,0.009632018175129922,-0.0035969586546871967,0.009632018175129922
372,1.344482559458452,1.6731468338188016,1.2930423592628537,12400.0,12.4,1.3452053943855697,1.6044098458942286,1.3792864161821303,1.6044098458942286,0.2251234297120983,0.01940429332298887,0.009870064355817935,-0.0030632479807891,0.009870064355817935
373,1.091627969112222,1.336079039620226,1.3580239739082618,12433.333333333336,12.433333333333335,1.325763372241092,1.6234240096069288,1.3927577873247305,1.6234240096069288,0.23066622228219824,0.01970809983832165,0.01002020996446752,-0.0022008694225210293,0.01002020996446752
374,1.089196144700322,1.3333027833594029,1.3398002028215652,12466.666666666664,12.466666666666665,1.2995494806549164,1.643766438938272,1.4114263386709176,1.643766438938272,0.2323401002673544,0.020103942871063082,0.010077375553829647,-0.0011293907777940042,0.010077375553829647
375,1.2307878859892853,1.5618309959813768,1.2122688803437125,12500.0,12.5,1.2739607826103028,1.665973419039523,1.4340823854469515,1.665973419039523,0.23189103359257146,0.020555439148534953,0.010090007550115824,-3.1701278543670375e-05,0.010090007550115824
376,1.6072077722783558,1.6540440914299832,1.6124722327096095,12533.333333333336,12.533333333333337,1.2545959271782505,1.689986960296557,1.4589649017487865,1.689986960296557,0.23102205854777047,0.021022575891829858,0.010102610532933123,0.0009436268888004477,0.010102610532933123
377,1.2179024273909305,1.6741580728747136,1.2300038852237078,12566.666666666664,12.566666666666665,1.2427483642845836,1.71459409253885,1.484744626127829,1.71459409253885,0.2298494664110211,0.021479855323406676,0.010116517691123475,0.0017390828048973461,0.010116517691123475
378,1.3870583413315052,1.7599930958881185,1.3364401109658426,12600.0,12.6,1.2347686855660374,1.7371309711821963,1.5097794338558301,1.7371309711821963,0.22735153732636615,0.021907728440028,0.010099037124524231,0.0023975688746231986,0.010099037124524231
379,1.1462208202548152,1.826159588463906,1.4251790116708116,12633.333333333332,12.633333333333333,1.223552603969115,1.7535369997579169,1.5310792376503048,1.7535369997579169,0.22245776210761203,0.02227504394809904,0.01001014249477386,0.00302275804247318,0.01001014249477386
380,1.1593476386528352,1.8147429545976532,1.4564712240002695,12666.666666666664,12.666666666666664,1.2028209686994902,1.759373660497081,1.5458889931036213,1.759373660497081,0.21348466739345984,0.02254960949217566,0.009795613220681497,0.0036911691086814386,0.009795613220681497
381,1.1821684189304422,1.7101163389192235,1.7240340779382113,12700.0,12.700000000000001,1.171632338975668,1.751403360133861,1.5543422682840262,1.751403360133861,0.19706109184983478,0.02272371900738494,0.009369778512847735,0.004370660995800086,0.009369778512847735
382,1.305079884485492,1.9627193580439113,1.5839869892429739,12733.333333333332,12.733333333333333,1.1350023849814947,1.7287966423256338,1.558806529859682,1.7287966423256338,0.16999011246595175,0.02280852680605582,0.008661696560970418,0.004924086025203954,0.008661696560970418
383,1.5216587427116646,1.956905862741831,1.8266059421709582,12766.666666666668,12.766666666666667,1.1002534151858232,1.6934930860767572,1.560566939137021,1.6934930860767572,0.13292614693973626,0.022804827549446804,0.00769748582391016,0.005201015038452028,0.00769748582391016
384,1.0006688028236024,1.8548325979616587,1.5365469977809387,12800.0,12.8,1.0723359788824203,1.6493989649484948,1.5583339700348204,1.6493989649484948,0.09106499491367437,0.022695712240615496,0.006610178651249919,0.005139860167179109,0.006610178651249919
385,1.0796277996103496,1.6742851039659425,1.7122868974237817,12833.333333333336,12.833333333333336,1.0510835227884536,1.600608854835724,1.54960187652532,1.600608854835724,0.051006978310403905,0.02246557115452422,0.0055608634342807555,0.004810359507436542,0.0055608634342807555
386,1.1230919666325017,1.6478500386042272,1.7724522135541234,12866.666666666668,12.866666666666669,1.0321899862782324,1.5500473316370762,1.532794111941347,1.5500473316370762,0.017253219695729127,0.02211903460102579,0.004655735555652677,0.004370011518099209,0.004655735555652677
387,0.8673931968108456,1.6222916949487813,1.4349546778010533,12900.0,12.9,1.0117543067118464,1.4997296756102563,1.5089171303846156,1.4997296756102563,-0.009187454774359338,0.021688715322939485,0.003918718844610204,0.003956307131062576,0.003918718844610204
388,1.0009673691269108,1.5353950925531472,1.3364583078371906,12933.333333333336,12.933333333333335,0.9904968780905751,1.4519100176235213,1.4818685641301717,1.4519100176235213,-0.029958546506650308,0.021230315786561427,0.0033172771868833282,0.0035996092146840003,0.0033172771868833282
389,0.7721963353731585,1.4765653000272831,1.3407173403114057,12966.666666666664,12.966666666666665,0.9734192064942196,1.4095562017087382,1.4568051198025938,1.4095562017087382,-0.04724891809385556,0.020804830966931285,0.0028118039924710956,0.0032362143820811894,0.0028118039924710956
390,1.1908993310794145,1.3521851727375627,1.8403103735611452,13000.0,13.0,0.965605862727597,1.3758176447719777,1.4377905305725964,1.3758176447719777,-0.06197288580061877,0.02045984617369626,0.002392616941565525,0.0028008230616813137,0.002392616941565525
391,0.848472851791772,1.295775457350894,1.242363077183349,13033.333333333336,13.033333333333337,0.9684904644687764,1.3532043888132608,1.4264594032796432,1.3532043888132608,-0.07325501446638238,0.020221150693235417,0.00208661828867804,0.0023045427055184745,0.00208661828867804
392,0.8584460642674953,1.2964072949826568,1.2340605568315095,13066.666666666664,13.066666666666665,0.9793773141548,1.343014566934183,1.4218150775189153,1.343014566934183,-0.07880051058473225,0.020089490099130046,0.0019470703199369044,0.0018366410042100383,0.0019470703199369044
393,1.1024482215517095,1.2176382035546387,1.6101020682375653,13100.0,13.1,0.9936144289396106,1.3452092146520764,1.4209154610724628,1.3452092146520764,-0.07570624642038637,0.020041986983499092,0.002036625180510556,0.0015083963046891241,0.002036625180510556
394,0.8990493347853719,1.2711337897116801,1.320088244124653,13133.333333333332,13.133333333333333,1.0073969849271496,1.3587646492503496,1.4207726867730475,1.3587646492503496,-0.0620080375226979,0.020048785100914134,0.0023949405034884115,0.0013920894981342402,0.0023949405034884115
395,0.9365376841463585,1.3091972203774054,1.3521495491309856,13166.666666666664,13.166666666666664,1.019715918367383,1.3822595584210546,1.4205307717353233,1.3822595584210546,-0.03827121331426864,0.020096779145815473,0.003004988341460639,0.0014866487400807425,0.003004988341460639
396,0.9279853129000215,1.3156879160493173,1.3266937084297206,13200.0,13.200000000000001,1.0326077900687338,1.4143547810313413,1.4220087266041472,1.4143547810313413,-0.007653945572805965,0.020197540991475332,0.003792842845783883,0.001720948676505892,0.003792842845783883
397,1.1381605193758686,1.303931906779275,1.5692682888972076,13233.333333333332,13.233333333333333,1.0494546753658358,1.4539445858820026,1.428260983428359,1.4539445858820026,0.02568360245364354,0.020374975252167013,0.004663176034622112,0.0019964889611111818,0.004663176034622112
398,1.173053101106282,1.3150943716073342,1.590129023995,13266.666666666668,13.266666666666667,1.0723355568058655,1.4999565088004614,1.4414183119827113,1.4999565088004614,0.05853819681775008,0.020645486002773557,0.005541625469338878,0.002246471278471778,0.005541625469338878
399,0.9699001291680679,1.4508054362747598,1.3045275456036367,13300.0,13.3,1.1003096437792221,1.5509524397559666,1.4611588578122436,1.5509524397559666,0.089793581943723,0.021002455220498106,0.006398456981277393,0.0024690740264536114,0.006398456981277393
400,1.0345210812372114,1.5466915835454798,1.4029306877607852,13333.333333333336,13.333333333333336,1.129608959876156,1.6047084040629185,1.4846883298444749,1.6047084040629185,0.12002007421844363,0.021413788807060623,0.007238599672076106,0.002715133748557001,0.007238599672076106
401,0.9835620640664292,1.5787812766016815,1.3530372399862365,13366.666666666668,13.366666666666669,1.1549502308646435,1.6578614636437365,1.5082447464669826,1.6578614636437365,0.14961671717675395,0.02183553001495249,0.008059186000266238,0.0030520352239071674,0.008059186000266238
402,1.229312949017604,1.5673124662552256,1.588666944939321,13400.0,13.4,1.170789464714236,1.7057152073673478,1.5291218823994273,1.7057152073673478,0.17659332496792057,0.022232825459397067,0.008799050017929322,0.0035330928710172256,0.008799050017929322
403,1.0260780054700405,1.6735760679629639,1.3426982523782902,13433.333333333336,13.433333333333335,1.1725345418449973,1.7426993130684358,1.5468034852207344,1.7426993130684358,0.19589582784770143,0.02259225314990396,0.009325245993673324,0.004177283945775101,0.009325245993673324
404,0.993207390104629,1.6973944320213925,1.3165374807037462,13466.666666666664,13.466666666666665,1.1581213830764536,1.7640167493645234,1.5623229901166986,1.7640167493645234,0.20169375924782473,0.022915067388941796,0.009490896063205424,0.004956134102382641,0.009490896063205424
405,1.5234270835089117,1.7851815696484097,1.7857604233538562,13500.0,13.5,1.1291565797263203,1.7677545072790715,1.5766008538231953,1.7677545072790715,0.1911536534558762,0.02320061633284975,0.009227959905453045,0.005797326086115717,0.009227959905453045
406,1.2256788743346752,1.8607914729175603,1.5544386299040305,13533.333333333336,13.533333333333337,1.0901785652566405,1.755765755117139,1.5895047053470364,1.755765755117139,0.1662610497701027,0.023440108936032465,0.00859052586979026,0.006616749936966382,0.00859052586979026
407,1.2848350524444538,1.951144254261515,1.6774882475709472,13566.666666666664,13.566666666666665,1.0460190917204837,1.7325872360430568,1.5998541587232085,1.7325872360430568,0.1327330773198483,0.02362079225196429,0.007724901364662061,0.007367136669275748,0.007724901364662061
408,1.2214436745162065,2.0052908246452184,1.5473371030622167,13600.0,13.6,0.9998954995027587,1.7032434218270034,1.6056897402483274,1.7032434218270034,0.09755368157867594,0.023726948236751207,0.006806192951155553,0.008049176750091274,0.006806192951155553
409,1.3460678446587921,1.883135549168542,1.7640642145099825,13633.333333333332,13.633333333333333,0.9547863606225233,1.6712663007656738,1.6055608255598688,1.6712663007656738,0.06570547520580505,0.023744361247307704,0.00595985876568274,0.008644828455485445,0.00595985876568274
410,1.3530627553267094,1.8729687072754446,1.8307454628700854,13666.666666666664,13.666666666666664,0.9157360644004475,1.6378412042555734,1.6006006557228556,1.6378412042555734,0.037240548532717854,0.023676143188320647,0.0051943552815733015,0.009048423829782439,0.0051943552815733015
411,0.7099949313571884,1.7405502165768256,1.421331630276295,13700.0,13.700000000000001,0.8883555429844376,1.6025175808864176,1.5943597121911763,1.6025175808864176,0.008157868695241266,0.023548015429669635,0.004421515857394726,0.009117058295223903,0.004421515857394726
412,0.7091100620985148,1.5181267788739101,1.7436306467999183,13733.333333333332,13.733333333333333,0.8745007293984504,1.5650943064240106,1.5895980911872563,1.5650943064240106,-0.024503784763245662,0.023388369714966353,0.0035742091236357983,0.008806386359947136,0.0035742091236357983
413,0.5006213852971976,1.479945975642751,1.5208439619642422,13766.666666666668,13.766666666666667,0.8711114320237918,1.5272916330219044,1.5858235182206801,1.5272916330219044,-0.058531885198775724,0.023207086807844318,0.00270434773786594,0.00822359898356728,0.00270434773786594
414,0.8526114585320332,1.3669137021966105,1.6148515548593687,13800.0,13.8,0.8742008022288665,1.4930581457499603,1.5802889352193812,1.4930581457499603,-0.08723078946942087,0.02299687822413416,0.0019713239257753514,0.007533084020239173,0.0019713239257753514
415,0.5226874083002323,1.3786813676700607,1.479115168885473,13833.333333333336,13.833333333333336,0.8831773264590012,1.4674643657099062,1.5708372814830112,1.4674643657099062,-0.10337291577310492,0.02275159705223415,0.0015523941315000722,0.00683334949495863,0.0015523941315000722
416,0.5233108954366975,1.3775606376249718,1.4660603509390528,13866.666666666668,13.866666666666669,0.9006963518437582,1.454795936142838,1.5580181677835558,1.454795936142838,-0.10322223164071787,0.022486241873340456,0.0015454948434349962,0.006132628659916868,0.0015454948434349962
417,0.5606930154872314,1.382081548654335,1.4994226634687744,13900.0,13.9,0.9290821717728875,1.456824278007974,1.5453270191400668,1.456824278007974,-0.08850274113209267,0.022244571484360178,0.001916713465443082,0.0054108260066741045,0.001916713465443082
418,1.0090279107168993,1.4917025629860927,1.3296700836501754,13933.333333333336,13.933333333333335,0.9677002547526502,1.472237062721705,1.5373851499778126,1.472237062721705,-0.06514808725610766,0.022082094217487174,0.0025255151653619965,0.004672428042597346,0.0025255151653619965
419,1.4860753534968574,1.4279635485563413,2.009275758988565,13966.666666666664,13.966666666666665,1.0131643923355953,1.497476186462804,1.537222971214261,1.497476186462804,-0.03974678475145721,0.022034207056887845,0.0032088825869368166,0.0039492730267081284,0.0032088825869368166
420,1.0980490785144668,1.4585789538050962,1.5347266712071186,14000.0,14.0,1.060477301201283,1.5283877287675771,1.5446120441391737,1.5283877287675771,-0.01622431537159663,0.02209779665165931,0.003862578356135378,0.0032961490801586618,0.003862578356135378
421,1.1565768076189646,1.5038415041541442,1.5991625838746544,14033.333333333336,14.033333333333337,1.1034938027369796,1.5618434913517296,1.555931138531383,1.5618434913517296,0.0059123528203466336,0.022234275821481467,0.004485594955849513,0.002806943296425056,0.004485594955849513
422,1.1455926119607278,1.5174738797245415,1.5587465414073376,14066.666666666664,14.066666666666665,1.1364250941137504,1.5967035192896242,1.5655442743315797,1.5967035192896242,0.031159244958044452,0.022386005195698798,0.005174003238603759,0.0025962852761771925,0.005174003238603759
423,1.0660528269825857,1.551210179942402,1.4007114606227304,14100.0,14.1,1.1579592848729539,1.6336855500338257,1.5697037551465731,1.6336855500338257,0.06398179488725253,0.022512354735994042,0.006031310854905382,0.002701233124012537,0.006031310854905382
424,1.1870429224421921,1.584640134641795,1.4528502440899187,14133.333333333332,14.133333333333333,1.1746255734704578,1.6741796673359584,1.571183525302583,1.6741796673359584,0.10299614203337537,0.022633357439704082,0.007034611204492125,0.002985657265594688,0.007034611204492125
425,0.9561166716708103,1.605081266670686,1.460554175161041,14166.666666666664,14.166666666666664,1.198018312757868,1.7189057835915131,1.5790535996364785,1.7189057835915131,0.13985218395503463,0.022830407613382314,0.008003311251579279,0.0031872936118474728,0.008003311251579279
426,1.301065431103723,1.6336362709967953,1.685764659368202,14200.0,14.200000000000001,1.2363537539485483,1.7673379029471885,1.6020438012073719,1.7673379029471885,0.16529410173981662,0.023186395407265425,0.008730067263420333,0.0031077548802448023,0.008730067263420333
427,1.0091005248366227,1.701806541876831,1.6240790862158812,14233.333333333332,14.233333333333333,1.2878543316894124,1.8177680154076519,1.6415554138756239,1.8177680154076519,0.176212601532028,0.023718111111680748,0.00913771721012325,0.002766087762530051,0.00913771721012325
428,1.163435098937899,1.722074392850492,1.4847810063234486,14266.666666666668,14.266666666666667,1.342253613636083,1.8674282065925238,1.6905001078812976,1.8674282065925238,0.17692809871122628,0.02435730474647262,0.009310614922126804,0.002359578986621429,0.009310614922126804
429,1.1190393002455408,1.8013716330447411,1.6851540291559677,14300.0,14.3,1.3884634829168911,1.9127956071571213,1.7378396610791154,1.9127956071571213,0.1749559460780059,0.02498539179749507,0.00940459390868187,0.002083809366960398,0.00940459390868187
430,1.0684217690639692,1.8634473416844546,1.5048659954643517,14333.333333333336,14.333333333333336,1.4211181657025012,1.950508657614412,1.7746053869176477,1.950508657614412,0.17590327069676426,0.025492737194236892,0.009537098071553668,0.0019957126837967403,0.009537098071553668
431,1.3896220931147083,1.9537290445733158,1.5367109213541046,14366.666666666668,14.366666666666669,1.4416590404656802,1.9784297339523782,1.7976196480874664,1.9784297339523782,0.18081008586491176,0.02582644809263873,0.00972899220061299,0.002013369641260915,0.00972899220061299
432,1.3738288963721792,2.0280178327942266,1.522429542006795,14400.0,14.4,1.4554007312531076,1.9958654531226294,1.8092916963634187,1.9958654531226294,0.18657375675921073,0.025997792712043073,0.00991208328118862,0.0019944588114859025,0.00991208328118862
433,1.9803641581185225,2.0672683523439184,2.2169954191111882,14433.333333333336,14.433333333333335,1.4677281217477196,2.0029428391567703,1.8143946243099833,2.0029428391567703,0.18854821484678697,0.02605088368276943,0.009984306050968509,0.001814907331502151,0.009984306050968509
434,2.0069502834306974,2.079924251574341,2.269943567769898,14466.666666666664,14.466666666666665,1.4811110663644047,2.0001313655871327,1.8163323506547477,2.0001313655871327,0.18379901493238493,0.026022904462331593,0.009881146081455723,0.0014279276474900087,0.009881146081455723
435,1.61837753105235,2.1968333600477146,1.840771147823209,14500.0,14.5,1.4933867352917218,1.9883581996182456,1.8146029704489426,1.9883581996182456,0.17375522916930297,0.025917788230105224,0.009635568952440594,0.000903863498925491,0.009635568952440594
436,1.416679087306317,2.1752172041125806,1.9144579532241273,14533.333333333336,14.533333333333337,1.4978402592494735,1.9691118058265442,1.80431157239384,1.9691118058265442,0.1648002334327041,0.025700190790217573,0.009391971751980767,0.0004287579928487895,0.009391971751980767
437,1.3000493324935185,2.075156574588949,1.8238331336360327,14566.666666666664,14.566666666666665,1.486691513780156,1.944024723442423,1.7790998428011908,1.944024723442423,0.16492488064123223,0.02532011110541612,0.009331212998900367,0.00021489966242135063,0.009331212998900367
438,1.6298808802367268,1.9365162557561384,1.993166780821681,14600.0,14.6,1.4577619234041002,1.914303583315849,1.7369444127606872,1.914303583315849,0.17735917055516182,0.02476332771651432,0.009528464553193174,0.0003342395153480017,0.009528464553193174
439,1.3874088596611154,1.9422219410370447,1.706051006265542,14633.333333333332,14.633333333333333,1.418753724097839,1.8807640423261496,1.6839196861335963,1.8807640423261496,0.19684435619255325,0.024085819448919594,0.009871136009848262,0.0006185664158801234,0.009871136009848262
440,1.1738726924336857,1.933261072340659,1.7365089599004508,14666.666666666664,14.666666666666664,1.383507173080311,1.8447059152242673,1.6314637842799764,1.8447059152242673,0.2132421309442909,0.023394166245684012,0.010140639084069666,0.0007639861218958927,0.010140639084069666
441,1.4371929504306096,1.7742871571490206,1.7817919230598844,14700.0,14.700000000000001,1.3629421768056507,1.8088236566143558,1.5894317727623697,1.8088236566143558,0.21939188385198616,0.022789336664867498,0.010187426608040768,0.0005618906847672019,0.010187426608040768
