B,G,R,Time[ms]
121.40261108226393,101.4408426674579,78.55890512573252,0.0
121.61000706588942,101.57797503385738,79.0807425072131,33.333333333333336
121.40409014284448,101.51511253068348,78.73544198976725,66.66666666666667
121.79421888790822,101.8360105913504,79.38203883495144,100.0
121.54848484848485,101.71244483671668,79.22634598411297,133.33333333333334
121.52781700500148,101.70857605177991,79.21924095322153,166.66666666666666
122.19940968122786,101.69120425029516,79.80584415584416,200.0
121.46836958108305,101.67947744854764,79.4641512188002,233.33333333333331
121.92953477133943,101.72387939492451,79.87158986073891,266.6666666666667
121.43916296914585,101.54972250289214,79.31398907583943,300.0
121.69794190629105,101.77390162020143,79.68207560940009,333.3333333333333
121.71119544592031,101.77331776383012,79.69089184060721,366.6666666666666
121.48375287381569,101.58844030517359,79.2849946550689,400.0
121.6925273470105,101.6566357685718,79.49185081052585,433.33333333333337
121.63670197116801,101.62241835834068,79.25937040305972,466.66666666666674
121.74194965514212,101.70528196342016,79.53389272064314,500.0
121.56132027120032,101.68400474454157,79.31002064754206,533.3333333333334
121.56435150609907,101.69075546574119,79.30622794300693,566.6666666666666
121.60542986425341,101.14547882204585,78.92562866256212,600.0
121.64306110793831,101.78478232218953,79.47949157258121,633.3333333333333
121.51061948206996,101.29327752148217,79.13604138723895,666.6666666666666
121.30586775653192,101.84203765873596,79.21452342723691,700.0
121.43273836720856,101.36903621383404,79.02555750438486,733.3333333333333
121.42793343847185,101.38197709552375,79.09096938700311,766.6666666666667
121.22852889589814,101.51706044482435,78.77938597137677,800.0
121.44936401019942,101.4699691953955,79.1216855572096,833.3333333333335
121.25452857163911,101.49259362978466,78.839683405309,866.6666666666667
121.3205719693609,101.3869517641144,78.8700204063526,900.0
121.20678880422126,101.42181673471191,78.88549235780506,933.3333333333336
121.1361162866353,101.31717091059652,78.67179782923728,966.6666666666664
121.20261466678404,101.33283446312763,78.9625700619186,1000.0
121.00463655838249,101.25950054288816,78.72804237462218,1033.3333333333335
121.36374243095554,101.13324472012995,78.87103825136613,1066.6666666666667
121.1946591499147,101.13536087827312,78.59550478451153,1100.0
121.51832950077886,100.99261182404871,78.95068615087901,1133.3333333333333
121.52734960314515,100.99121726874857,78.99774497440843,1166.6666666666667
120.90467177274996,101.05358452915456,78.70088329371717,1200.0
121.29255649091715,100.92840053167922,78.96622360064983,1233.3333333333335
120.93494145611409,101.05160372098484,78.67112715321184,1266.6666666666665
121.14510691154292,100.93364977967056,78.66600124212582,1300.0
121.17385950597135,101.04648023143685,78.54604257844373,1333.3333333333333
120.9773312039748,100.93293999349363,78.4853162984651,1366.6666666666667
121.17854079791796,100.97900215893296,78.71037766539496,1400.0
121.23173355092352,101.13129589793041,78.64177731622283,1433.333333333333
121.48868778280544,101.07980120169128,78.93858022401898,1466.6666666666665
121.08427232129655,101.09259752166328,78.59206518203058,1500.0
121.18440499322851,101.22432726844492,78.7819731496202,1533.3333333333335
121.18328622740387,101.22936171465584,78.80249367014073,1566.666666666667
121.32435366963054,101.58457317252103,78.84568770725123,1600.0
122.0710437125228,102.26098606645228,80.0760551548333,1633.333333333333
121.33142588842917,101.6257886551046,78.80571940018194,1666.666666666667
121.53440830103024,101.36778339499169,78.9179624743909,1700.0
121.13261143880035,101.36358834404436,78.70314288229598,1733.3333333333335
121.148428558852,101.353860375033,78.71115415089356,1766.6666666666665
121.27210435190891,101.2007512398392,78.99357337793819,1800.0
121.0589693928456,101.15086421926813,78.65473779968895,1833.333333333333
121.16926372626698,101.11120403791412,78.82003990961645,1866.666666666667
120.98868738445286,101.07083956921093,78.64743081844058,1900.0
121.16876206759326,100.9848335224844,78.79670434949226,1933.333333333333
121.2009079251846,100.9683405309004,78.82933659557534,1966.6666666666665
120.9839263005353,100.80479401413658,78.44151657646469,2000.0
121.195822954589,100.95178858313558,78.88645039574338,2033.333333333333
120.91298067711172,100.90099783336036,78.5564431736112,2066.666666666667
121.16341179418396,100.7452208645924,78.8843132341887,2100.0
120.63565080254101,100.69627249546774,78.32471590490368,2133.333333333333
120.60546523796188,100.69842439606762,78.31517974265627,2166.6666666666665
120.79911572472126,100.468177919735,78.45032975482803,2200.0
120.60976547481735,100.54706769585665,78.2537189838228,2233.333333333333
120.91302489424736,100.68620572759295,78.72992173566996,2266.6666666666665
120.60861207227993,100.66569071067345,78.28872031467188,2300.0
120.81080961575307,100.78623962739695,78.54684805518298,2333.333333333333
120.83760519993515,100.77727828791252,78.5868350848232,2366.6666666666665
120.64397836308164,100.76500066325704,78.38554394446328,2400.0
120.80133240968651,100.78811148613792,78.53573481509869,2433.333333333333
120.6102406886082,100.83988975194187,78.30897460462509,2466.666666666667
120.82817221100416,100.79175203030348,78.60108774153609,2500.0
120.60791191946586,100.76928972541158,78.33246864268129,2533.333333333333
120.59638598611582,100.7718837973676,78.31749377275341,2566.666666666667
120.85275693840552,100.61998319748848,78.63227556118916,2600.0
120.48192256105648,100.47430247468569,78.24410806667944,2633.333333333333
120.73117455451236,100.34611699854084,78.49418544666676,2666.6666666666665
120.4416762038912,100.3657158787452,78.2842826539895,2700.0
120.88448229970722,100.3555141513619,78.56605447608908,2733.333333333333
120.8547288776797,100.24413619167716,78.41649729248573,2766.666666666666
120.69971608552923,100.365672966019,78.30951113477066,2800.0
120.88233815396444,100.42322479519713,78.4683997279153,2833.333333333333
120.61596320747721,100.22553223054669,78.13896595208071,2866.666666666666
120.90264817150064,100.13997477931903,78.46591499146949,2900.0
120.57694579825727,100.28369517058044,78.20754689115346,2933.333333333333
120.56095111504948,100.29115344853052,78.16449564318418,2966.666666666667
120.7690001476887,100.30502141485748,78.33825136612022,3000.0
120.49678038694431,100.24822035149904,78.05818933687786,3033.333333333333
120.83992024811695,100.3002658396101,78.4536552946389,3066.666666666667
120.49717914635949,100.2924235711121,78.11668881996752,3100.0
121.06169985775247,100.47958155523943,78.65438300142247,3133.333333333333
121.07719686900015,100.60403190075321,78.81648205582631,3166.666666666666
120.81944938359413,100.57946597913704,78.36590208629683,3200.0
121.11362019914652,100.64204006638218,78.7140973210052,3233.333333333333
120.94175260787102,100.79642306780464,78.43990042674254,3266.666666666666
121.40808134867541,100.87321975440788,78.7899235869533,3300.0
120.96639402560456,100.669481981982,78.37633357041251,3333.333333333333
120.93810751541015,100.67761676149834,78.36007882882883,3366.666666666666
121.26533464157228,100.68822287634168,78.6999375613237,3400.0
120.86391341836887,100.44001427169745,78.23268813367824,3433.333333333333
120.90747182826394,100.13183480510212,78.25373888740225,3466.666666666667
120.83222958057397,100.21952747449436,78.01208161804188,3500.0
121.25935692667284,100.15525456234457,78.18397710587037,3533.333333333333
121.06629033944118,100.04115705688216,78.10328091632692,3566.666666666667
120.88386623115879,100.08766593749064,77.86260525606066,3600.0
121.11663157265951,99.87476666218656,78.28345504233681,3633.333333333334
120.85027092113184,99.80036122817579,77.69161649608671,3666.666666666666
121.16624330944387,99.75962381686777,78.0385557470743,3700.0
120.90982872919795,99.75465343831064,77.55609156692304,3733.333333333334
120.901545836557,99.74546033768715,77.54656472337263,3766.666666666666
120.96498875994897,99.64285497296312,77.6080867610426,3800.0
120.83940382212198,99.72650797037399,77.37212350269743,3833.333333333334
121.17217836569236,99.90060654088819,77.77373586515895,3866.666666666666
121.04802036026699,99.96525343655705,77.61870218537597,3900.0
121.45097412480972,100.15578386605783,78.03934550989345,3933.333333333333
121.55042813455658,100.16189602446484,78.013501529052,3966.666666666667
121.5277070356847,100.25689607560369,77.73170507195238,4000.0
121.34063016732657,100.09601177202325,78.13188913666772,4033.333333333333
121.1230593607306,100.29490106544901,77.73963470319634,4066.666666666666
121.47548484848484,100.2649393939394,78.24486363636362,4100.0
120.98968589549985,100.22354273633344,77.79687405617638,4133.333333333334
120.99469948655994,100.2067502265177,77.82068861371187,4166.666666666667
121.31986363636364,100.18380303030304,78.06890909090909,4200.0
121.2939951352995,100.21429005776831,77.84019458802071,4233.333333333333
121.6061872909699,100.24207965947096,78.1298266950441,4266.666666666667
121.57236119585112,100.2344874923734,77.9305216595485,4300.0
121.60969445663522,100.10543440427368,78.23529411764707,4333.333333333333
121.59716400066587,100.10952042252457,78.21870791022866,4366.666666666666
121.31970822803007,100.23518818384056,77.99114696045642,4400.0
121.49797969097595,100.29266484056959,78.21369875452109,4433.333333333334
121.44513529948313,100.26356035269079,77.95966859227728,4466.666666666667
121.85086652477956,100.25919732441471,78.4673761021587,4500.0
121.65523184868825,100.43363331299572,78.144081757169,4533.333333333333
121.62988102501524,100.44522574740697,78.12875228798048,4566.666666666666
121.91183648566201,100.46090604026844,78.51124161073825,4600.0
121.50224992398905,100.44930069930072,78.15982061416844,4633.333333333334
122.05309640024406,100.6155735204393,78.50986882245272,4666.666666666667
121.76170186771736,100.5960049480002,78.13431377040669,4700.0
122.03964508788808,100.74685786716759,78.49667842580291,4733.333333333333
122.0722957804554,100.75269162047006,78.51321757456361,4766.666666666667
122.074302690721,100.87345298934794,78.25775814297148,4800.0
122.35278000123144,100.8256111076904,78.64862077458284,4833.333333333333
121.89895983553741,100.81531711208616,78.29563376392255,4866.666666666666
122.05188548985916,100.75241631125157,78.47609769568284,4900.0
121.88113282808138,100.64649749930962,78.15139148844773,4933.333333333334
121.86260010432328,100.65775827682491,78.14431898376853,4966.666666666667
122.11053588063713,100.51025488309587,78.67836471648266,5000.0
121.73290735803377,100.47033495755569,78.08124176396677,5033.333333333333
122.0557905059606,100.38880205939138,78.5132236217094,5066.666666666666
121.70494921910955,100.35130864349053,78.05740848700563,5100.0
122.05828813091844,100.39488523183478,78.48467714749778,5133.333333333334
122.06513744598696,100.39649413134752,78.49819190340473,5166.666666666667
121.79053660629464,100.46846556955043,78.15138978272195,5200.0
122.00085807974013,100.40662253685144,78.41040728141951,5233.333333333333
121.82608562409979,100.50668076369095,78.12578529619074,5266.666666666667
121.81189963500864,100.47771109176708,78.3014309494357,5300.0
121.71405445854522,100.48536216612452,78.11991264641651,5333.333333333333
121.92370751739143,100.57577150562349,78.175860378168,5366.666666666666
121.94311312939156,100.4739345218005,78.34992789420392,5400.0
121.75833819152528,100.58641956368322,78.07066368015708,5433.333333333334
122.09628425025312,100.68273449725383,78.48809487281765,5466.666666666667
121.95448248260574,100.83995751493134,78.15730250600332,5500.0
122.02545181184988,100.69781534779541,78.57152281304656,5533.333333333332
122.0456567764107,100.694179374674,78.61581418182935,5566.666666666666
121.786398085361,100.8168973029364,78.21142339909791,5600.0
122.08375011506244,100.7012211960357,78.53813936362799,5633.333333333334
121.99803606222746,100.80934339529274,78.17605851606719,5666.666666666668
122.15885721322576,100.67381934609936,78.4590234591466,5700.0
121.85736715719472,100.6609506803768,78.13475155470722,5733.333333333332
121.84223569977215,100.6674004063789,78.10846007019272,5766.666666666668
122.13455144387659,100.51223754694908,78.35890647127641,5800.0
121.94898401014444,100.51302075279129,77.98206167073889,5833.333333333332
122.00172403177143,100.52007265562463,78.22617141801612,5866.666666666666
121.68149182289592,100.41046607959251,78.03866098002516,5900.0
122.19085955298318,100.43933563204236,78.52061141555322,5933.333333333334
122.21093220860784,100.44226032879749,78.53698971738193,5966.666666666668
121.74587463826118,100.47824949202636,77.99214949818361,6000.0
121.98055846314881,100.44330706237301,78.3373098947109,6033.333333333332
121.82043901237608,100.49773720829997,78.05099747552491,6066.666666666666
122.04151530078195,100.48573055846316,78.35604334708455,6100.0
121.80753956037191,100.558201465427,78.15200726556245,6133.333333333334
121.8112954867311,100.55265993473309,78.14854380887877,6166.666666666668
122.03332614986759,100.53501939535742,78.40400837386859,6200.0
121.82562650083122,100.64586540237669,78.10219506188042,6233.333333333332
122.0166553783634,100.74989224801428,78.36210824456622,6266.666666666668
122.04741605659036,100.83751892008772,78.21610601427115,6300.0
122.0926513145742,100.84017301890276,78.44609322086077,6333.333333333332
122.10044024382734,100.8642478911397,78.46057816636906,6366.666666666666
122.123497976709,101.04080560961296,78.33161894171069,6400.0
122.49857906279922,101.03507552590122,78.75152132950298,6433.333333333334
122.04669014302044,101.12728199425449,78.25175300404659,6466.666666666668
122.23729651252589,100.96864671176596,78.52715225651006,6500.0
121.94249716830365,100.88944747009263,78.08519914971528,6533.333333333332
121.89346059988264,100.90828777067308,78.15199394557193,6566.666666666666
122.07583480060543,100.75056374138944,78.41341550057147,6600.0
121.79257405862913,100.78550026256451,78.12969140950794,6633.333333333334
122.23726491468426,100.77827251214347,78.25957466683273,6666.666666666668
122.0731722505916,100.75923215842572,78.01756134014198,6700.0
122.141041753945,100.58967555741751,78.27618737296156,6733.333333333332
122.14417601514376,100.5989076634238,78.31739825288213,6766.666666666668
121.9370354854226,100.67813309748794,78.01747117876153,6800.0
122.16613135967975,100.62269391301649,78.28509363993236,6833.333333333332
121.92885847724558,100.73487563810144,77.9656007075362,6866.666666666666
122.49744675551126,100.84320899240255,78.35110225432805,6900.0
121.96979006656427,100.83411689863304,77.98169094943289,6933.333333333334
121.97602755667272,100.8340393179103,77.96930906608327,6966.666666666668
122.41859197907586,100.8604278241375,78.39189189189189,7000.0
122.01916243851728,100.89644525128395,78.01702121056961,7033.333333333332
122.34593244270664,100.86172011978464,78.37206163012615,7066.666666666666
122.2541412380122,101.09562211981566,78.15660418482999,7100.0
122.5689531697596,101.08386785402914,78.46104745298294,7133.333333333334
122.61276310873085,101.08517561340142,78.47982314111346,7166.666666666668
122.3674181093536,101.22731660231659,78.2241873209615,7200.0
122.33451256031904,101.23891759375631,78.39446694285405,7233.333333333332
121.97629456314266,101.22446277938549,78.21591958623237,7266.666666666668
122.23157441044269,101.18625700387906,78.44035157933624,7300.0
122.02050366356752,101.25140077581429,78.23396034726925,7333.333333333332
122.08276373983236,101.23531685893671,78.1753780966814,7366.666666666666
122.37455540778772,101.10599078341015,78.53978906999042,7400.0
121.74409321393894,100.90133008646332,77.98056501703066,7433.333333333334
122.34281369765242,101.06192493289268,78.40320253223479,7466.666666666668
122.06088535120794,101.09416748126426,78.07536191407159,7500.0
122.31451224999613,101.01730050117149,78.36982730531119,7533.333333333332
122.32613384226288,101.01522133780199,78.37561482722774,7566.666666666666
122.08544740802809,101.02065198839394,78.08279414731028,7600.0
122.19536377600895,101.05342208568015,78.18960728638149,7633.333333333334
122.06206457819357,101.0339182919828,78.04389517292744,7666.666666666668
122.30830579217677,100.98107030365095,78.36166581327872,7700.0
122.25902976709429,101.14952048823015,78.13205255947192,7733.333333333332
122.25647652260557,101.14189189189187,78.13938535309502,7766.666666666668
122.30633524181913,101.09323651259136,78.32467532467533,7800.0
122.33034935857515,101.23782538298668,78.19810997633576,7833.333333333332
122.69980694980694,101.22060655125168,78.65869037240005,7866.666666666666
122.23427575040478,101.38265973346618,78.1740565450243,7900.0
122.546705691867,101.31076410511892,78.51486797857766,7933.333333333334
122.55322892016441,101.31269460704945,78.52266782911943,7966.666666666668
122.28584490453757,101.44825502107612,78.35576803868089,8000.0
122.38717435491631,101.33573833573834,78.53183137054107,8033.333333333332
122.21637263572748,101.45279213021149,78.29002777389873,8066.666666666666
122.43494856398085,101.4153827057053,78.54789058014866,8100.0
122.18521621747429,101.47963506028023,78.27336343465377,8133.333333333332
122.16760539341185,101.48688109978431,78.25517851324305,8166.666666666666
122.32926810346164,101.39758568790829,78.37001349904577,8200.0
121.9160609903195,101.21751770636813,78.0783719419788,8233.333333333332
122.34023801765736,101.19821874660583,78.5179289050257,8266.666666666668
122.1186985057953,101.189933125417,78.21801734704961,8300.0
122.25774274983068,100.96742811403236,78.523397574041,8333.333333333334
122.08365806511001,100.87952195391364,78.48919947224694,8366.666666666668
121.82238961676536,100.85577306618393,78.1772882084011,8400.0
121.99527476910805,100.81209536375073,78.44417170384462,8433.333333333334
121.73616949464576,100.87050105857443,78.14944309778774,8466.666666666666
121.91812156730387,100.8153017704274,78.45441993188305,8500.0
121.73164370531742,100.89503237089994,78.15008744745481,8533.333333333334
121.7256758000675,100.89133503114357,78.16157834985118,8566.666666666666
121.94900432634779,100.82983032125428,78.36695713540549,8600.0
121.72601331655979,100.91140192077567,78.10923261022981,8633.333333333332
122.0246540455954,100.91778405081158,78.45877696296523,8666.666666666666
121.81539382037985,101.01379215120735,78.20189622902028,8700.0
121.784877675841,100.90420489296636,78.38949541284404,8733.333333333332
121.79001529051986,100.91830275229358,78.39732415902141,8766.666666666668
121.78632137706728,101.09346138504496,78.1333496977693,8800.0
121.84023550082456,101.21867053003098,78.21686728418847,8833.333333333334
121.67512503451871,101.25289190267252,78.13919486974932,8866.666666666668
121.86769353502501,101.13396336411891,78.47864441103374,8900.0
121.67182466901964,101.12269777907929,78.05582355932987,8933.333333333334
121.68420079219518,101.10659186535764,78.06462401553566,8966.666666666666
121.82724288334387,100.89629024551886,78.32583265262087,9000.0
121.50675831882003,100.82178690874343,77.93793443583066,9033.333333333334
121.51342395139764,100.69114172624344,78.10472216256022,9066.666666666666
121.4222985990167,100.58526886857882,77.84282477690613,9100.0
121.68586532681904,100.4555738791363,78.16035016876532,9133.333333333332
121.61898990518854,100.4558160228284,78.20577766868153,9166.666666666666
121.29457518946948,100.48073087662235,77.84965174434659,9200.0
121.35084485407066,100.33514592933949,77.93024577572966,9233.333333333332
121.10567278287462,100.31759938837921,77.79108562691133,9266.666666666668
121.42724770642202,100.22831804281346,78.27423547400613,9300.0
121.06107033639142,100.29464831804282,77.83845565749236,9333.333333333334
121.04660550458715,100.27489296636088,77.84077981651377,9366.666666666668
121.28931192660549,100.19711009174313,78.14042813455659,9400.0
121.07649847094801,100.27555045871559,77.85883792048931,9433.333333333334
121.39442396313365,100.1789708141321,78.01096774193549,9466.666666666666
120.8733251205305,100.13607397606121,77.60584629891561,9500.0
120.89801115692457,100.066138127577,77.8327067669173,9533.333333333334
120.91427661896677,100.0787351443124,77.82606718408925,9566.666666666666
120.81387355325394,100.1846968106949,77.50210643184134,9600.0
121.05425603013548,100.280257002248,77.80697490734553,9633.333333333332
120.96127201147495,100.26570940275278,77.65163121433149,9666.666666666666
121.381202443468,100.41206730253992,78.00350597853543,9700.0
121.12890977846504,100.48140606580215,77.7486259319932,9733.333333333332
121.10712371970543,100.49121974371144,77.72713076228241,9766.666666666668
121.38495338120244,100.44068159897115,78.11226786288408,9800.0
121.1267737003058,100.44515290519878,77.82729357798165,9833.333333333334
121.42190476190477,100.25413210445468,78.08319508448541,9866.666666666668
121.06998470948014,100.22243119266057,77.8197859327217,9900.0
121.29,100.00617737003056,78.00284403669725,9933.333333333334
121.27799694189603,100.0146636085627,78.02714067278288,9966.666666666666
120.94276758409788,100.0374159021407,77.72860856269115,10000.0
121.17079510703364,99.8979510703364,77.9583639143731,10033.333333333334
120.93961773700306,99.95567278287464,77.74753822629971,10066.666666666666
121.22039755351685,99.82828746177373,77.9664373088685,10100.0
121.03218654434252,99.94625382262993,77.69709480122323,10133.333333333332
121.01732415902141,99.95350152905199,77.68292048929662,10166.666666666666
121.37909370199692,100.06016897081413,77.89956989247312,10200.0
121.25889400921659,100.05769585253456,77.7832411674347,10233.333333333332
121.4487652525376,99.89749988517536,78.0272057810371,10266.666666666668
121.28550925925926,100.13371913580248,77.69188271604938,10300.0
121.27256367663344,99.9507352036422,77.91978897502153,10333.333333333334
121.49834876543207,100.08180555555555,78.04501543209877,10366.666666666668
121.27743827160494,100.18966049382715,77.71092592592593,10400.0
121.48233024691359,100.19251543209877,77.9710802469136,10433.333333333334
121.53011581815927,100.37945930880714,77.83977455716587,10466.666666666666
121.6104938271605,100.25024691358028,78.06618827160494,10500.0
121.35854070660524,100.38708141321042,77.87867895545315,10533.333333333334
121.32482334869431,100.40709677419355,77.87393241167435,10566.666666666666
121.659274691358,100.37483024691359,78.07567901234567,10600.0
121.66527313266444,100.6021305586523,77.85666728601511,10633.333333333332
121.87238325281805,100.57940047070484,78.10638857921467,10666.666666666666
121.63847232711187,100.6961761940724,77.96495229875316,10700.0
121.90197740548372,100.67483007875715,78.33968836212875,10733.333333333332
121.9852904744209,100.64539204756596,78.28398674594327,10766.666666666668
121.43815791501629,100.5916649969946,77.84695528875052,10800.0
121.47884792626728,100.32563748079878,78.15560675883256,10833.333333333334
121.4276158623985,100.40967587811909,77.90623121618914,10866.666666666668
121.64761185518549,100.21304501949663,78.1120632523157,10900.0
121.48106342128081,100.16758020562372,77.71353586027499,10933.333333333334
121.42134303284374,100.17798190589217,77.79856048579752,10966.666666666666
121.72338350055742,100.04603307320698,78.0622600024774,11000.0
121.43633097980923,100.07391923696272,77.78548866592345,11033.333333333336
121.64175515928673,100.02048302328808,78.04965861627853,11066.666666666664
121.44972438994179,100.03135451505017,77.63765019199802,11100.0
121.39787037037036,99.94231481481482,77.73279320987655,11133.333333333332
121.43694444444445,99.9368209876543,77.75501543209877,11166.666666666664
121.31166666666668,99.9824074074074,77.62131172839506,11200.0
121.847764152112,100.01015731450516,78.15383067013501,11233.333333333332
121.50676638176638,100.09616932986499,77.77694165737644,11266.666666666668
121.75126966431314,100.02334943639292,78.10296667905364,11300.0
121.53685123250341,100.18530905487428,77.76887464387464,11333.333333333336
121.5557413600892,100.17400594574508,77.76998947107644,11366.666666666668
121.82845596432553,100.15435711631365,78.11177691068995,11400.0
121.62583612040136,100.28844605475041,77.8060820017342,11433.333333333336
121.63966049382715,100.1931172839506,78.06496913580247,11466.666666666664
121.58859779511957,100.42700978570544,77.76709401709401,11500.0
121.32547990356152,100.17798394726401,77.90408032471694,11533.333333333336
121.36262092959379,100.17276528214364,77.91183202612385,11566.666666666664
121.10851545984093,100.29877872579884,77.69560919225562,11600.0
121.06923053601746,100.18566577734659,77.77727079796264,11633.333333333332
120.66806494447128,100.04570557701594,77.57147815065186,11666.666666666664
121.43550550153921,100.06502788868907,78.13168642750465,11700.0
120.86852626117741,99.84081545457322,77.48710592974639,11733.333333333332
120.85122226630452,99.84972685934021,77.43366801965392,11766.666666666668
120.98886627377121,99.68641776535635,77.78747189987241,11800.0
121.11299694189604,99.92253822629972,77.61943425076453,11833.333333333336
121.29125382262998,99.73030581039757,77.96441896024466,11866.666666666668
121.13835637480798,99.76932411674349,77.58995391705069,11900.0
121.34658986175116,99.70084485407068,77.84115207373272,11933.333333333336
121.37662058371737,99.68337941628263,77.85244239631336,11966.666666666664
121.10021505376345,99.75526881720431,77.5552995391705,12000.0
121.18419354838707,99.76686635944701,77.68261136712748,12033.333333333336
121.06261136712747,99.7963133640553,77.52400921658986,12066.666666666664
121.30271889400923,99.71933947772658,77.81602150537636,12100.0
121.15009216589857,99.80880184331795,77.53612903225806,12133.333333333332
121.13912442396317,99.81752688172043,77.52259600614441,12166.666666666664
121.490599078341,99.851643625192,78.02913978494624,12200.0
121.20407066052229,99.9183256528418,77.63643625192013,12233.333333333332
121.45168970814129,99.9094777265745,77.96121351766513,12266.666666666668
121.4262595749272,100.13026524667478,77.73267265693633,12300.0
121.68364594732056,100.10850299770357,78.04018001633709,12333.333333333336
121.67533868655887,100.1253795293066,78.05126150147187,12366.666666666668
121.51423331226978,100.23941556339874,77.80939537321024,12400.0
121.65997256600342,100.30112664334264,77.98545073439884,12433.333333333336
121.33520737327187,100.26823348694315,77.7752534562212,12466.666666666664
121.73723471479431,100.37153029298894,78.13008029838325,12500.0
121.34955453149,100.32955453149002,77.77397849462365,12533.333333333336
121.53772174529541,100.43795755436709,77.82292742320794,12566.666666666664
121.32608662369672,100.10415358941776,77.88339942128387,12600.0
121.40278655425921,100.33917975432699,77.70428309418492,12633.333333333332
121.45350230414743,100.08698924731183,77.93669738863288,12666.666666666664
121.1084178187404,99.93864823348694,77.5678955453149,12700.0
121.3088940092166,99.79356374807988,77.86691244239631,12733.333333333332
121.29179723502304,99.7932104454685,77.88827956989249,12766.666666666668
121.02935483870968,99.77193548387095,77.52033794162827,12800.0
121.24820276497697,99.71563748079878,77.78955453149001,12833.333333333336
121.08785754646387,99.88889906995922,77.69076526015179,12866.666666666668
121.28382488479264,99.6699385560676,77.81379416282644,12900.0
121.27768444738993,99.82898447975587,77.60664580860934,12933.333333333336
121.3019743230122,99.82399087588429,77.59753710525099,12966.666666666664
121.26397553516821,99.71920489296636,77.90501529051987,13000.0
121.32148636776968,99.86899496015906,77.64546953747515,13033.333333333336
121.42587426598648,99.89041813726246,77.81637717121588,13066.666666666664
121.29802875945934,99.94838401430269,77.60137478230045,13100.0
121.62127213599865,100.0209299816593,77.99653221953362,13133.333333333332
121.61563121310672,100.03695883359278,78.01536612055547,13166.666666666664
121.21226719032862,100.08830658770826,77.70313890337823,13200.0
121.4804340119908,100.08741889246798,77.93377309927101,13233.333333333332
121.39920571393387,100.27008804876543,77.77292038667571,13266.666666666668
121.74134784894692,100.26152846936569,78.0334024062104,13300.0
121.71315602508264,100.5048342754765,77.92841256602725,13333.333333333336
121.8157302673432,100.51156728576085,77.89123182671571,13366.666666666668
122.07660320563551,100.49699762602992,78.20247017021211,13400.0
121.86094431255722,100.63656534624279,77.94324194324194,13433.333333333336
122.06865893962669,100.61101025617157,78.25843690359821,13466.666666666664
121.65867689357624,100.58225342529305,77.86891101970123,13500.0
122.24000498194046,100.74070556731847,78.2585315730477,13533.333333333336
122.07615323744356,100.65717078620304,78.24402240531273,13566.666666666664
121.59697522654874,100.4848915968206,77.79408035134384,13600.0
121.8614882627656,100.34919432159096,78.08257817090899,13633.333333333332
121.63208118046828,100.34855467113532,77.74839020000313,13666.666666666664
121.90088286862482,100.20267188009123,78.06623842107713,13700.0
121.58022622538752,100.20769911092493,77.70879299911559,13733.333333333332
121.59687504848795,100.19325358035036,77.73614796195442,13766.666666666668
121.80742913000978,100.13267855203341,78.09118838151097,13800.0
121.63059163059164,100.17738056447737,77.7999348321929,13833.333333333336
122.05785278365923,100.17908519118194,78.06485863743927,13866.666666666668
121.66208940402493,100.19398283914414,77.74688513398192,13900.0
121.735842637553,99.99560820214643,77.96720069279066,13933.333333333336
121.73720347632452,99.9980515263044,77.97125228095136,13966.666666666664
121.35664195551992,99.98110444954763,77.6622381825748,14000.0
121.49832775919731,100.04636037174608,77.7756577223618,14033.333333333336
121.54690254538708,100.1584140042681,77.74444066433675,14066.666666666664
121.69586794691985,100.06329855277964,78.06824591957832,14100.0
121.67315241508793,100.42680258809291,77.83864761284117,14133.333333333332
121.6677683129296,100.43572437120821,77.85368275690855,14166.666666666664
121.96904529162596,100.3574609381061,78.19795497214851,14200.0
121.57139764327472,100.33867874926548,77.8687409148548,14233.333333333332
122.0504585020714,100.46315691476984,78.27176527176528,14266.666666666668
121.8538844667877,100.55958975313814,78.00055858120375,14300.0
121.89461231559088,100.40130826090991,78.24009525871402,14333.333333333336
121.92281879194631,100.40304023752823,78.25535830266294,14366.666666666668
121.65739337518944,100.48388643181886,77.94646336560172,14400.0
121.71556493996887,100.27341522432688,78.20308863646872,14433.333333333336
121.6483314260972,100.39045247889156,77.91366405839236,14466.666666666664
121.72020845575727,100.29329168341944,78.0010979494634,14500.0
121.51795379333807,100.22172393529831,77.80102372189404,14533.333333333336
121.28169166037331,100.06537922105943,77.70357412573401,14566.666666666664
121.54364009062466,99.88335927746868,78.11890633910271,14600.0
121.16249248647566,99.82722747098623,77.69518980318419,14633.333333333332
121.24413210445469,99.60935483870968,77.9216282642089,14666.666666666664
121.21816192222923,99.78085168688256,77.70246443598478,14700.0
121.4339195166685,99.71268282909234,78.04269223063051,14733.333333333332
121.45229104696146,99.71003190358029,78.05907556678946,14766.666666666668
121.15947654260378,99.79118468288792,77.78822374275106,14800.0
121.39363627995459,99.74720014727993,78.08200116596606,14833.333333333336
121.23857813506795,99.8160995366819,77.82524316529103,14866.666666666668
121.6390308478542,99.95692999199557,78.20492888368942,14900.0
121.44847915768732,100.03662028200232,77.94566221291792,14933.333333333336
121.42879133058308,100.04685672064528,77.95201958007512,14966.666666666664
121.35968518916263,99.95300849927895,77.97306004725229,15000.0
121.21292688165444,99.9636556104446,77.84201159829402,15033.333333333336
121.61529214123884,99.88419154478059,78.1895411741134,15066.666666666664
121.25473544688131,99.9986437125287,77.78544456945579,15100.0
121.47537875868872,99.97028497449257,78.07871091040795,15133.333333333332
121.45301542776998,99.98370913798685,78.12416195305396,15166.666666666664
121.21014749626251,100.07787864309604,77.78310189109628,15200.0
121.5120601698442,100.06026231832683,78.07741627236719,15233.333333333332
121.31627699089131,100.17161660219163,77.8103509393832,15266.666666666668
121.48259174205879,100.17893747206509,78.0608942249896,15300.0
121.32039209037805,100.23738113219179,77.84771049427431,15333.333333333336
121.30226715780714,100.23645639073408,77.86743831203859,15366.666666666668
121.3053603755638,100.13828971188364,78.04438341873524,15400.0
121.02192323033968,100.03008499278944,77.74239820809426,15433.333333333336
121.42192598977894,99.96373376023644,78.14551136013792,15466.666666666664
121.10744440664335,99.80304951597441,77.56740791142177,15500.0
121.38188538026165,99.71219806389757,77.86294188599884,15533.333333333336
121.41790121547646,99.70352271672905,77.90106083567872,15566.666666666664
120.83584297890049,99.45589753864651,77.48416380253688,15600.0
121.101351663764,99.33668295239124,77.83561179353606,15633.333333333332
120.42629009444721,99.18271965445392,77.38851120135054,15666.666666666664
120.90245458411812,99.26000972112524,77.74497235555016,15700.0
120.80825818699572,99.27071053477655,77.37210833320574,15733.333333333332
120.80334369306613,99.27695699435064,77.35695148276866,15766.666666666668
121.13434715821812,99.27069124423963,77.72029185867895,15800.0
120.8453456221198,99.27413210445472,77.39496159754225,15833.333333333336
121.30403957893441,99.36823204845643,77.8150825331751,15866.666666666668
121.23822410540316,99.56034082825596,77.5115516654811,15900.0
121.38296786564811,99.61517644511801,77.66673367766678,15933.333333333336
121.41423622923948,99.62671264652214,77.70972381158569,15966.666666666664
121.20281136918942,99.67650697429873,77.539309683605,16000.0
121.65263043948907,99.70112578480192,78.015541397334,16033.333333333336
121.26902854668606,99.7836420994031,77.7136826152847,16066.666666666664
121.71130661453243,99.83588573911156,78.03228909680524,16100.000000000002
121.3133176630687,99.88947824204374,77.66200167012032,16133.333333333332
121.45015438563827,99.979968657388,77.68806342999892,16166.666666666668
121.43007144403549,99.85567376983269,77.90407633068381,16200.0
121.69924612112112,100.11178365865864,77.70603415915916,16233.333333333336
121.43171063619215,99.90367426468315,77.9138032350849,16266.666666666664
121.26111093928805,100.01192280332786,77.66449138650914,16300.0
121.51452076825537,100.00964958401634,77.99350508768133,16333.333333333332
121.52457241827236,100.01382488479263,78.00655676862648,16366.666666666668
121.29803915504284,100.10947020072372,77.65419231126094,16400.0
121.39722574459532,100.14587263786224,77.80798255652121,16433.333333333332
121.23390962793431,100.08706275322427,77.6503108279467,16466.666666666664
121.63972781506338,99.86822644792444,77.90344581158341,16500.0
120.46834268680323,99.48746026676399,77.31356177092364,16533.333333333336
120.47003087405515,99.48119420236955,77.32004075983636,16566.666666666668
120.99855037079986,99.42707602160708,77.77353740043338,16600.0
120.30788445817059,99.23359675417082,77.27654646198566,16633.333333333332
120.68002868739893,99.10008545182652,77.42175054170355,16666.666666666668
120.6140208521518,99.18244867339287,77.32385137100601,16700.0
120.9494777265745,99.17748079877113,77.57107526881721,16733.333333333336
120.77924583186613,99.05580476751841,77.54797372812591,16766.666666666664
120.86545011790454,99.33427862460121,77.29755097637286,16800.0
121.12120278038931,99.24269839557356,77.681596103756,16833.333333333332
120.72505376344084,99.17436251920122,77.34772657450075,16866.666666666668
121.02874404697687,99.29231077477922,77.56532527780773,16900.0
120.68886328725037,99.20431643625193,77.33130568356374,16933.333333333332
120.76121913580248,99.20239197530864,77.27561728395062,16966.666666666664
121.26632553981784,99.29827535718141,77.7839341584082,17000.0
120.89340813464236,99.44460028050491,77.46549943744895,17033.333333333336
120.98672811059907,99.28933947772656,77.73339477726573,17066.666666666668
121.17002752605696,99.63071784245199,77.6141094238085,17100.0
121.16771727571172,99.46679407548972,77.77083365442412,17133.333333333332
121.4869034302759,99.59319848371858,77.84843400447427,17166.666666666668
121.0090778786431,99.5943929842948,77.5123375922815,17200.0
121.63942031683969,99.79957796086828,77.94344365312108,17233.333333333336
121.14304271178057,99.78644109733091,77.47743791173106,17266.666666666664
121.38128228126064,99.84665821297129,77.72243528283798,17300.0
121.22353323230136,99.9149321127022,77.55543871586306,17333.333333333332
121.21999195868,99.90600934030249,77.55625831194136,17366.666666666668
121.51118052763431,99.96403055701609,77.84574583243126,17400.0
121.31104444375715,100.06030990010208,77.57679460612997,17433.333333333332
121.67817709460924,100.00759286178207,78.07063990350417,17466.666666666664
121.18544521077536,100.07234095196856,77.49562366622337,17500.0
121.21287548356271,99.78105204753172,77.7641909282863,17533.333333333336
121.3914112516624,99.85709646491202,77.79649274734791,17566.666666666668
121.1224290972072,99.82935391086508,77.46862338786998,17600.0
121.38137506572235,99.63009927937401,77.77447190177219,17633.333333333332
121.13521788884422,99.61160424334273,77.4889431849813,17666.666666666668
121.33218383694677,99.5184022515696,77.80921968267715,17700.0
120.93104511197077,99.47328267805126,77.43664750396869,17733.333333333336
120.94240401954286,99.45674521831604,77.42570473005257,17766.666666666664
121.08576977020176,99.47229628716305,77.57414114637116,17800.0
121.12488788544212,99.55593356632544,77.43670553304673,17833.333333333332
121.13747823004485,99.42829400613412,77.70092320022194,17866.666666666668
120.94809117950771,99.47533252161585,77.50876192531172,17900.0
121.32529322010387,99.45615954872619,77.84997611084567,17933.333333333332
121.36162014703388,99.45201362452414,77.8731562967187,17966.666666666664
120.98229120108505,99.55737250127152,77.44295115823867,18000.0
121.22461970007551,99.51192145862551,77.84652374273693,18033.333333333336
121.02518379236471,99.62806898571274,77.5308786585084,18066.666666666668
121.2879490775704,99.62771450148728,77.86651357058089,18100.0
121.10509686666771,99.74136522663872,77.59633494135598,18133.33333333333
121.12379205647088,99.74634341815269,77.57945840975295,18166.666666666668
121.30044849960699,99.72612240494429,77.89642895673752,18200.0
121.08638626450687,99.83584297890049,77.5936223664134,18233.333333333336
121.2368416996748,99.92649846647042,77.77471756854646,18266.666666666664
121.11409768352266,99.96669389516515,77.67091533991955,18300.0
121.3919054297736,99.96670930752278,77.93995345467997,18333.33333333333
121.39988903102508,99.96908281059756,77.935514695683,18366.666666666668
121.20355100719758,100.07476534685513,77.65377679823683,18400.0
121.46015134935192,100.0596458240217,77.95137401168256,18433.33333333333
121.09663548232972,99.9500331365689,77.54276158623985,18466.666666666664
121.30209762187323,99.80612795339304,77.81828830356179,18500.0
121.21903318590914,99.90831348776793,77.60968669780102,18533.333333333336
121.1954968607924,99.90406086660688,77.5843720038351,18566.666666666668
121.4282157548016,99.72373426530173,77.88686481303931,18600.0
121.20738873596636,99.72627037392141,77.57681007020692,18633.33333333333
121.40382890545263,99.65338817925958,77.80754956236663,18666.666666666668
121.36520349423576,99.76466663563438,77.58014864466476,18700.0
121.57439215503729,99.69878508588188,77.86711973808748,18733.333333333336
121.65139044768677,99.6654819802968,77.76493328345181,18766.666666666664
121.1645068505861,99.67878019361021,77.50278353385087,18800.0
121.33117867194508,99.64605820678564,77.76890483407045,18833.33333333333
121.37558379493863,99.83715806296452,77.64032025322349,18866.666666666668
121.5712120743513,99.67676986360684,78.08100083506017,18900.0
121.39452900743223,99.93407190181385,77.72541078992694,18933.33333333333
121.38909835684031,99.9406197148133,77.69602321215226,18966.666666666664
121.85130464565948,99.97150952796112,78.07919728484244,19000.0
121.64665587246228,100.09172997882679,77.8005978328559,19033.333333333336
121.96371371371372,100.11278465965964,77.98440628128128,19066.666666666668
121.78594219219221,100.248607982983,77.75046921921921,19100.0
121.9959177927928,100.22869744744743,78.08411536536536,19133.33333333333
122.00448886386387,100.23561061061059,78.1092967967968,19166.666666666668
121.75661663968116,100.33849171752395,77.7655218582638,19200.0
121.8116340051824,100.23963133640554,78.09089357476455,19233.333333333336
121.63994786575432,100.36824465856724,77.81245636084347,19266.666666666664
121.78202920138405,100.45406445406445,78.06442303216497,19300.0
121.65295039488588,100.51155176961628,77.85686356654101,19333.33333333333
121.73498877665544,100.52388078314009,77.83670033670035,19366.666666666668
122.22521484618258,100.58699713538422,78.37848735832607,19400.0
121.64526990333442,100.48360719328464,77.88268243106954,19433.33333333333
122.03006289699837,100.44493398928884,78.23192489724747,19466.666666666664
121.67866483995516,100.42514634450116,77.93154502428696,19500.0
121.47737605542326,100.0311446509758,78.01458262456316,19533.333333333336
121.48464417158941,100.02631985896765,78.0082887452448,19566.666666666668
121.16150681965792,100.00241239600409,77.64329013701173,19600.0
121.37062753224258,99.85613769214115,77.8349828348746,19633.33333333333
121.39077410045151,100.03007028813481,77.67243867243867,19666.666666666668
121.58292603453894,99.924343279182,77.9024499992242,19700.0
121.50454602067505,100.05962759995018,77.64592414995641,19733.333333333336
121.48147340889277,100.0715531199402,77.61052123552123,19766.666666666664
121.54432186690252,99.88248072119042,77.88038604167637,19800.0
121.3605331347267,99.93183757699889,77.56772021288151,19833.33333333333
121.44431385890577,99.83496737079763,77.90682893638079,19866.666666666668
121.21322706935122,99.8378542132737,77.59183134476758,19900.0
121.4623726075068,99.79118506089979,77.87451839423316,19933.33333333333
121.46670705940839,99.79875093214018,77.87569910514543,19966.666666666664
121.13133640552995,99.91955587171007,77.59068134723039,20000.0
121.46204635843895,99.89560029828486,77.84966132239622,20033.333333333336
121.22610613969671,100.00203517275664,77.60668344519016,20066.666666666668
121.48345451155852,99.94711657966693,77.93855642555306,20100.0
121.20836297281416,100.06719141434448,77.62168682151362,20133.33333333333
121.18968236785948,100.08089258652151,77.603903133022,20166.666666666668
121.60643299352978,100.17491349749416,77.97626029884096,20200.0
121.43733805024128,100.25295970457262,77.74609381060995,20233.333333333336
121.71259445452995,100.2863194153517,78.08906266970784,20266.666666666664
121.48640009930334,100.40185262765907,77.81829043119366,20300.0
121.88851477740369,100.53990522509042,78.06824417009602,20333.33333333333
121.92118718044644,100.55324853473007,78.09948247911211,20366.666666666668
121.80435122622623,100.68748435935936,77.76571884384384,20400.0
121.75728095082934,100.53305714596036,78.05829415506834,20433.33333333333
121.57977927422372,100.5370214490585,77.74671093652576,20466.666666666664
121.70139179816601,100.35179754534596,77.96387841549131,20500.0
121.64397807946196,100.46532880807074,77.7662535807697,20533.333333333336
121.63969672437412,100.46123427575041,77.76150516876324,20566.666666666668
121.64607674285095,100.19655851913916,78.0116991729895,20600.0
121.42639916833464,100.20866111188693,77.7192508805412,20633.33333333333
121.65901720740429,100.06150599698988,78.04088504088504,20666.666666666668
121.37128582289871,100.10482707256901,77.66707008642494,20700.0
121.47941783425655,100.09109528464369,77.83996648512776,20733.333333333336
121.51840990550669,100.07646356033452,77.8669335443529,20766.666666666664
121.37614237614237,100.04796040279913,77.6289779515586,20800.0
121.44739443363298,99.98074012294195,78.0178389398573,20833.33333333333
121.31486912132074,100.04021784666945,77.6723145432823,20866.666666666668
121.57524554298747,99.95799779670747,78.01072165588295,20900.0
121.15154795410265,99.99682986422545,77.65876967803794,20933.33333333333
121.15849132465284,99.99619583707049,77.66735224074476,20966.666666666664
121.38960195465934,99.98377818328024,77.90376704914485,21000.0
121.0423069216898,99.93090640075212,77.58132330502599,21033.333333333336
121.34537590049871,100.08994212179053,78.10785973770088,21066.666666666668
121.2168836792132,100.13510964030556,77.74007979463705,21100.0
121.15372342057623,100.146298057746,77.89475622104261,21133.33333333333
121.37991810849087,100.30018163906162,77.97858814112429,21166.666666666668
121.016354208217,100.15442913687828,77.66817526310946,21200.0
121.50443322455513,100.33538575210883,78.12420725324796,21233.333333333336
121.04321745267099,100.25588352612684,77.74037310914056,21266.666666666664
121.59693060772119,100.38721445723783,78.2323286743427,21300.0
121.03432332043829,100.31291709692832,77.62994929334342,21333.33333333333
121.22204868091423,100.39611233105495,77.66231095165932,21366.666666666668
121.19796876438281,100.13508330520695,77.92971986131141,21400.0
121.19849455082813,100.22712579274678,77.78078628163291,21433.33333333333
121.4251431562096,100.13307370235823,78.12243704205406,21466.666666666664
121.02507542639,99.97980419924879,77.63244258358475,21500.0
121.35490425466408,99.8501169878702,78.03221784372883,21533.333333333336
121.3771781294255,99.83341543008434,78.03443445600641,21566.666666666668
121.27243987106371,99.91634639226385,77.65184106124474,21600.0
121.71560904222194,99.99567193922032,77.97635135135134,21633.33333333333
121.45633017810437,99.90117075600945,77.63102503425084,21666.666666666668
121.79633204633205,99.9179380993897,78.066010711172,21700.0
121.36267436267435,99.88240314046766,77.68806342999892,21733.333333333336
121.38380735154932,99.8790826855343,77.68070877748299,21766.666666666664
122.13649925798643,100.20053112551744,78.18322268218385,21800.0
121.84500507693508,100.25486214168556,77.79837538077012,21833.33333333333
121.72580645161293,100.009448551016,78.08438746791204,21866.666666666668
121.49196805866268,100.08884849614715,77.71008886403182,21900.0
122.02841688489838,100.22099077191669,78.20289312881907,21933.33333333333
122.0437866317496,100.21509851602444,78.24551066217734,21966.666666666664
121.77408342686121,100.29515837386208,77.84044145155256,22000.0
121.76811594202898,100.14489656880959,78.1037718320327,22033.333333333336
120.90719532782772,100.00410640142357,77.66058310900215,22066.66666666667
121.41006195257424,100.13623462630085,78.12602618488113,22100.0
121.18316824103985,100.18353567983831,77.74530367285699,22133.33333333333
121.16144342208,100.19194084235345,77.74761547529741,22166.66666666667
121.55704028719583,100.33021386272283,78.08154091620386,22200.0
121.34987069761713,100.27027276645526,77.74273443753462,22233.333333333336
121.5823096959142,99.98708444430744,78.0986390888214,22266.666666666664
121.26024495097887,99.98959267621315,77.64019732162187,22300.0
121.4899792781369,99.82629202362914,77.96662852194353,22333.33333333333
121.50715986762751,99.8154207775338,77.98229363189311,22366.66666666667
121.35794193858708,99.88365994817607,77.62078542723704,22400.0
121.2159579550884,99.55678683168163,77.75811845938073,22433.33333333333
120.8607744469332,99.55917277776074,77.56173483477032,22466.666666666664
121.10154643920099,99.4789665858673,77.83553741830565,22500.0
120.85723052376423,99.52979350127336,77.51830259887699,22533.333333333336
120.83398791077292,99.53692737258751,77.48889263907212,22566.66666666667
120.90363914373093,99.33703363914374,77.71071865443426,22600.0
120.82601024822806,99.52818262710564,77.47948820226443,22633.33333333333
120.98060814335246,99.5403178791691,77.63445429719863,22666.66666666667
120.69288990825687,99.48827217125385,77.41120795107035,22700.0
120.9725378212528,99.45742450938695,77.83739899143326,22733.333333333336
120.99251169572878,99.46245215383681,77.87526581201773,22766.666666666664
120.66424144844764,99.57196670514612,77.41908682179962,22800.0
120.94470046082952,99.44282357249672,77.68535416730245,22833.33333333333
120.76300197498354,99.586263912917,77.37385366749851,22866.66666666667
121.19909370199692,99.64440860215052,77.75236559139785,22900.0
120.88125960061443,99.68552995391704,77.45396313364057,22933.33333333333
120.86998463901688,99.67658986175115,77.48384024577572,22966.666666666664
121.11860215053764,99.48643625192013,77.79119815668203,23000.0
120.82960061443931,99.50096774193548,77.41605222734255,23033.333333333336
121.42283425602328,99.55440262270746,77.77085330776606,23066.66666666667
120.9540557619099,99.429419108241,77.47228087480542,23100.0
121.0849220905322,99.37646224743,77.51594408396653,23133.33333333333
121.08785043848158,99.37969884253195,77.52272552132301,23166.66666666667
120.99616710793673,99.39777415183794,77.41672310818298,23200.0
121.26338177951081,99.21538769785614,77.74366166792535,23233.333333333336
120.7943683245226,99.21934867376663,77.22777923338933,23266.666666666664
121.02606229674956,99.20925357952007,77.53705901391736,23300.0
120.82756654285406,99.27819305519164,77.29016845706887,23333.33333333333
121.00869081124549,99.363807874308,77.33535397272138,23366.66666666667
121.15984799730316,99.36106769636237,77.84292543899974,23400.0
121.08800606191818,99.41943215909443,77.32890545263353,23433.33333333333
121.30698540730248,99.465781047965,77.74231882273259,23466.666666666664
121.11805276343055,99.52806729966291,77.3407354714997,23500.0
121.25028608542357,99.59281538984942,77.56306250579904,23533.333333333336
121.2737450901556,99.59604738193178,77.59986700893825,23566.66666666667
121.15167166671823,99.62518170290414,77.4015247579872,23600.0
121.3299260817122,99.6233105495933,77.66562026412646,23633.33333333333
121.13773853338695,99.73087866885227,77.47177805956763,23666.66666666667
121.56354189218443,99.65150156187178,77.90727739461231,23700.0
121.14273343024156,99.68508953700554,77.3903751585068,23733.333333333336
121.1132279714224,99.68750193300964,77.35626140475675,23766.666666666664
121.24736777292036,99.5320177328982,77.71938304291606,23800.0
121.02365925743489,99.51516224370421,77.39241733883381,23833.33333333333
121.3146630377633,99.39365354282005,77.56699038134414,23866.66666666667
121.15547582964771,99.39798348436578,77.335168403798,23900.0
121.331503417561,99.32222497139144,77.65839854019114,23933.33333333333
121.33649831441562,99.30903411375375,77.65235208610399,23966.666666666664
120.98134351333044,99.35268764238657,77.35744412289883,24000.0
121.1589495720707,99.32618065390058,77.54205406071054,24033.333333333336
121.0565521294034,99.36608109361951,77.2313271270838,24066.66666666667
121.19827904685673,99.3067083307678,77.49311926605503,24100.0
120.91510873418306,99.31690889755406,77.25949786538847,24133.33333333333
121.10422787863793,99.39625150774752,77.2814771286302,24166.66666666667
121.39976185321501,99.44491695790678,77.69671852287136,24200.0
121.09542881885382,99.50470107939259,77.34047258219158,24233.333333333336
121.3068006896127,99.50266301336123,77.80195185025552,24266.666666666664
121.03591219752475,99.60028631241914,77.4414444923342,24300.0
121.30210578166368,99.61073825503357,77.81856104919648,24333.33333333333
121.40345776760586,99.63013020752793,77.8327869359478,24366.66666666667
121.2119506386664,99.72681161661457,77.56040268456377,24400.0
121.38170371282557,99.75354042238777,77.91858567822177,24433.33333333333
121.04725428848852,99.79746620840591,77.54297735924665,24466.666666666664
121.09926267281107,99.65811059907836,77.78801843317973,24500.0
120.86457757296465,99.73347158218128,77.48305683563748,24533.333333333336
120.8624884792627,99.73053763440859,77.47990783410137,24566.66666666667
121.03422427035328,99.58967741935484,77.7289247311828,24600.0
120.8711059907834,99.59274961597542,77.48970814132105,24633.33333333333
121.16688172043013,99.37258064516128,77.79113671274962,24666.66666666667
120.78201228878649,99.39167434715822,77.42251920122888,24700.0
120.8122387739792,99.20297931625765,77.63542416216298,24733.333333333336
120.83163648054872,99.19861598052574,77.66227781435155,24766.666666666664
120.82041474654379,99.36978494623655,77.4416743471582,24800.0
120.82875820996063,99.1942373348439,77.63508734326439,24833.33333333333
120.8289093701997,99.40036866359443,77.37470046082949,24866.66666666667
121.01976958525343,99.34941628264208,77.58917050691244,24900.0
120.82328725038404,99.4694930875576,77.338955453149,24933.33333333333
120.81904761904762,99.47869431643623,77.33935483870968,24966.666666666664
121.24826225667739,99.73973151673012,77.69998304640662,25000.0
121.17892205970749,99.76277299138451,77.64958463696192,25033.333333333336
121.50013917669256,99.84245198404108,77.88791637027187,25066.66666666667
121.34922524974483,99.9168496582439,77.64655305724801,25100.0
121.45190573802073,99.75072052771911,77.95380916418785,25133.33333333333
121.43603100966357,99.7743014348905,77.97980981150687,25166.66666666667
121.15195002010333,99.96140166393472,77.52877864720256,25200.0
121.36054495407171,99.94208703182508,77.83540036495222,25233.333333333336
121.11516098104107,100.09174836853992,77.60453716017693,25266.666666666664
121.42133424055919,100.08465035722021,77.92557139764328,25300.0
121.25416756873786,100.2057650078867,77.66079547211828,25333.33333333333
121.24232208579471,100.20573407973279,77.69351745894286,25366.66666666667
121.53479990057173,100.1892866020383,77.88130748197862,25400.0
121.35363251167541,100.30926607490801,77.73944576748215,25433.33333333333
121.49822163115084,100.46999969071848,77.91780843101476,25466.666666666664
121.48822396221723,100.45740119313943,77.65813758389261,25500.0
121.29650780041948,100.33340477976637,77.88992145995681,25533.333333333336
121.29361421988148,100.34906685855137,77.897346785676,25566.66666666667
120.863378503749,100.39826010250795,77.61621876473363,25600.0
120.96565668759054,100.23151557218736,78.02207568807339,25633.33333333333
121.0292726242785,100.55679225928932,77.60062464595741,25666.66666666667
121.25640552995392,100.51265745007679,77.84345622119815,25700.0
121.1418553396113,100.51925774085665,77.5745418676695,25733.333333333336
120.961643625192,100.42705069124423,77.53694316436254,25766.666666666664
121.26763559021623,100.33287610005705,77.72664642510365,25800.0
120.82268817204302,100.21490015360985,77.41619047619048,25833.33333333333
121.09585253456221,100.0879569892473,77.7705376344086,25866.66666666667
121.24188909164013,100.33451891256612,77.65120774440975,25900.0
121.33679213187766,100.32850338663286,77.81985896761823,25933.33333333333
121.33108588748337,100.33949834534376,77.84582315281602,25966.666666666664
121.1862648068537,100.3070392478273,77.63549624222931,26000.0
121.3799832987969,100.27185847276778,77.88318436272542,26033.333333333336
121.16156867596571,100.33111681563729,77.58194414375406,26066.66666666667
121.54707265023352,100.31201868060495,77.9821235270467,26100.0
121.143815915628,100.41879813193951,77.62061980020414,26133.33333333333
121.14664584170973,100.43421581665793,77.62204249528347,26166.66666666667
121.41047845854082,100.39847833482821,77.95348405653668,26200.0
121.21123929112673,100.5032629202363,77.73135805523768,26233.333333333336
121.47508737203478,100.46070578047195,78.03346426251818,26266.666666666664
121.24577057495442,100.60784647264406,77.69897627810596,26300.0
121.40809699069064,100.64828503386634,77.84317879565769,26333.33333333333
121.42305075310057,100.65383663749112,77.84384375096651,26366.66666666667
121.30512170228559,100.70827018835249,77.64534685924599,26400.0
121.73532560629336,100.77090412574283,78.11089388508744,26433.33333333333
121.33159620202272,100.81126094083444,77.75503355704699,26466.666666666664
121.61021247641727,100.80716296044292,78.02118578542047,26500.0
121.3998237095228,100.931138465345,77.8041783935917,26533.333333333336
121.41208672254356,100.93421581665793,77.77963690347323,26566.66666666667
121.70279590511244,101.02992298889679,78.10888256579966,26600.0
121.46143259208858,101.08070701759813,77.81362694460769,26633.33333333333
121.70465159434634,101.03626326044599,78.17177496675224,26666.66666666667
121.51626820895063,101.17355333560141,77.84545201496924,26700.0
121.70475984288498,101.15569232672505,78.12519716698111,26733.333333333336
121.73687873070855,101.15348096372128,78.1571614140352,26766.666666666664
121.43600964958401,101.24598707203172,77.8368694522624,26800.0
121.62252188166887,101.13339312776421,78.10201651563419,26833.33333333333
121.35357065536759,101.14146537593172,77.77359044938608,26866.66666666667
121.3640707118968,100.90695559699768,78.05593144583327,26900.0
121.10625279348984,100.87794953994111,77.74526455311869,26933.33333333333
121.10104341661145,100.87597675816471,77.74039424810813,26966.666666666664
121.48838647821111,100.81226610583614,78.073129619893,27000.0
121.28467819255873,100.84345714904278,77.77796678316274,27033.333333333336
121.53190239074631,100.79878143073641,78.01374756440791,27066.66666666667
121.18487303992826,100.73690965886247,77.6863575913154,27100.0
121.71558907042778,100.77838290741518,78.15798538379185,27133.33333333333
121.71343232633556,100.78251020186504,78.1695449114804,27166.66666666667
121.24877060588257,100.69212569201746,77.72741471561564,27200.0
121.45261806822752,100.64780564748092,77.97728327096156,27233.333333333336
121.27363684161692,100.71822905390778,77.79706491819503,27266.666666666664
121.32735847602608,100.59109473976234,77.98528119846493,27300.0
121.14943821956444,100.70089237550668,77.74142687606923,27333.33333333333
121.16219965168072,100.69167578564492,77.7342293050568,27366.66666666667
121.535041598367,100.76347694306128,78.03613954783042,27400.0
121.35333869421335,100.8677357498531,77.80496706151611,27433.33333333333
121.42390148421005,100.71664380500286,78.0170768922522,27466.666666666664
121.25149885177936,100.88417613242298,77.84415023966217,27500.0
121.46773422930508,100.97239646748764,78.19478137570704,27533.333333333336
121.4980349244024,100.98783964983124,78.19912766055823,27566.66666666667
121.17357397161044,101.00303623445281,77.80321501780128,27600.0
121.3771866282385,100.96279456868515,78.17187861227133,27633.33333333333
121.01648233486944,100.93605222734254,77.88978494623656,27666.66666666667
121.46580768460151,100.95605936840158,78.26990120678761,27700.0
121.20103879290414,100.96344188770556,77.96612363793291,27733.333333333336
121.18044788311268,100.97518610421837,77.92105790422761,27766.666666666664
121.38661899110708,100.73843687868934,78.2265154200638,27800.0
121.1099979963935,100.75196892868702,77.90797281260113,27833.33333333333
121.35437633894855,100.53510164449855,78.1420711126181,27866.66666666667
120.98652959943286,100.5392475687006,77.80162754496557,27900.0
121.09017770448344,100.48715379991678,77.94147927808517,27933.33333333333
121.09598816330934,100.47819922013471,77.96721791532451,27966.666666666664
120.71821812596006,100.28129032258065,77.65826420890937,28000.0
121.25062034739454,100.27911779664936,78.17630195891066,28033.333333333336
120.66841781874041,100.12029185867895,77.60032258064516,28066.66666666667
121.11021376940027,100.18615045543517,78.04461877533406,28100.0
120.93235516236919,100.24000123298862,77.76103139497249,28133.33333333333
120.904951990506,100.24921782285035,77.72088220335066,28166.66666666667
121.1500701262272,100.16426490760293,78.02479848342402,28200.0
121.11842390127735,100.36315838307614,77.78812668171838,28233.333333333336
121.39110197012344,100.29046175733772,78.04829431231249,28266.666666666664
121.16303776327592,100.38139052979929,77.83470448148951,28300.0
121.28325549747936,100.39914329013702,78.0049021123929,28333.33333333333
121.28272971886308,100.41964865617172,77.98504623759007,28366.66666666667
121.14806853678905,100.43545294281384,77.8225187888535,28400.0
121.38210187733897,100.41918473386323,78.06525840472581,28433.33333333333
121.22424457984104,100.5022268270807,77.79703399004114,28466.666666666664
121.58390808152664,100.49087619459995,78.22113630037423,28500.0
121.22851266507904,100.60531036402438,77.78416787801937,28533.333333333336
121.21812080536915,100.62015587789566,77.76293570036805,28566.66666666667
121.46135527170384,100.60990319487831,78.05978412148579,28600.0
121.30001855689235,100.67072340951971,77.87602449509791,28633.33333333333
121.50813410447529,100.66558933597254,78.175501809297,28666.66666666667
121.29326075526554,100.78620913617668,77.92298889679276,28700.0
121.43604057773793,100.75557479974022,78.07612965082114,28733.333333333336
121.4629480716296,100.75078093588594,78.09417622862092,28766.666666666664
121.24332725079641,100.68275446138621,77.83875606965022,28800.0
121.44282930751864,100.40110722790958,78.08018123898185,28833.33333333333
121.15379024526028,100.31888473077043,77.71880122475491,28866.66666666667
121.30765781090528,100.1140784956546,77.98611325889958,28900.0
121.05092320539387,100.09669687316364,77.66407385643151,28933.33333333333
121.06780997742243,100.08438746791204,77.64010453716018,28966.666666666664
121.26242538582872,99.96981412179508,77.90713821791978,29000.0
120.97896885534904,99.84341075681192,77.5829647728327,29033.333333333336
121.1674914174373,99.73666223363131,77.87081310116602,29066.66666666667
120.99384529737421,99.77141001453623,77.55494386540069,29100.0
121.23797668017195,99.68055856245941,77.85140568459471,29133.33333333333
121.24140970525472,99.68977515232115,77.86388519469274,29166.66666666667
121.00392787554512,99.71453313951693,77.61143413849628,29200.0
121.22388890607121,99.66916153774784,77.89258652151054,29233.333333333336
121.02202084557574,99.71833730244644,77.57549562366624,29266.666666666664
121.6521048698468,99.91504234649395,77.96370967741935,29300.0
121.42830676298418,100.03046767966124,77.70553618134262,29333.33333333333
121.26374342503377,99.95189995189995,77.65794659343047,29366.66666666667
121.23389416385737,99.78395138094207,77.80649800513406,29400.0
121.44579026030638,100.10862187071864,77.67358948810562,29433.33333333333
121.7130246606053,100.15017436791628,77.9964192302902,29466.666666666664
121.16583263830972,100.1762425478022,77.80996509436878,29500.0
121.21894040144743,99.95073145083971,77.9313858905762,29533.333333333336
121.24000247425232,99.94881390529801,77.92337549871648,29566.66666666667
121.20552685068813,100.17665130568358,77.69714037455974,29600.0
121.22780131753937,100.03858287198835,77.86843163331581,29633.33333333333
120.99542263322304,100.15754801595894,77.60246497386572,29666.66666666667
121.26927597191721,100.10885163764576,77.92263322302294,29700.0
121.08975350261343,100.22852812915598,77.67822348684008,29733.333333333336
121.07255744904587,100.23825503355705,77.6521046608728,29766.666666666664
121.32749822163116,100.16113568181116,77.90914854792318,29800.0
121.08486685429749,100.23378591531872,77.62389818451737,29833.33333333333
121.42411829508605,100.12152244410306,77.86902822386693,29866.66666666667
120.93407663996537,99.99126279652369,77.55061392385491,29900.0
121.30009587727707,99.72470850214953,77.96038103485604,29933.33333333333
121.34599325766243,99.70933720966197,77.97708223796124,29966.666666666664
121.04616053003151,99.70255550900713,77.51952706791417,30000.0
121.07362447035536,99.53776327591007,77.7376364704791,30033.333333333336
121.10155316606932,99.73405328244041,77.58171577526417,30066.66666666667
121.47949620127041,99.73108419479388,77.81149582762484,30100.0
121.27523664217213,99.75625856271016,77.52481629094531,30133.33333333333
121.27427139120688,99.75832918171629,77.50322269273882,30166.66666666667
121.27811137488558,99.62812456360844,77.75962388865617,30200.0
121.07349997672578,99.66770624835142,77.38431938431937,30233.333333333336
121.36382177107984,99.7553400174368,77.59210362436168,30266.666666666664
121.05433753820853,99.6809415196512,77.37699576409256,30300.0
121.08024309528965,99.54200043299416,77.58123279621441,30333.33333333333
121.09601645377786,99.54602109300095,77.60285157578944,30366.66666666667
120.72541343649338,99.52765747576409,77.217591664997,30400.0
121.34053443849938,99.56309343395293,77.75693563851175,30433.33333333333
120.99868555345932,99.75143042711781,77.47021618779576,30466.666666666664
121.13812513531069,99.67104815513564,77.7340951968577,30500.0
121.1782960170057,99.90798926282798,77.52214929634285,30533.333333333336
121.17182578472902,99.91368368787724,77.49442194603485,30566.66666666667
121.38827600117924,99.9013638691058,77.78885630498534,30600.0
121.19776877841394,100.0472466601499,77.5134447392512,30633.33333333333
121.41864109606043,100.06464025818865,77.80145541435864,30666.66666666667
121.26459681298391,100.1700569442505,77.51412744961131,30700.0
121.40222501512824,100.22107402752563,77.75115207373274,30733.333333333336
121.42954894567801,100.2346196217164,77.76561312045183,30766.666666666664
121.06770172888382,100.14721801255683,77.44030866297591,30800.0
121.25750780935888,100.04385612222806,77.65369746079855,30833.33333333333
121.21665192632936,100.19199677264194,77.51643935514903,30866.66666666667
121.3245600470108,99.84350354127363,77.85601397952557,30900.0
120.75984464343512,99.70858314196323,77.32644914692601,30933.33333333333
120.76764329639505,99.69945902624724,77.35187953701278,30966.666666666664
120.96242467210207,99.60282354391752,77.67447559453171,31000.0
120.80164295732318,99.63673073069988,77.37284034338731,31033.333333333336
120.99169273923832,99.55820476858344,77.66521276759704,31066.66666666667
120.72962101012592,99.64631721714471,77.29261902193178,31100.0
120.994775210764,99.53986406300571,77.59254350137941,31133.33333333333
120.99429742767752,99.55527642063407,77.60741642649076,31166.66666666667
120.74635883051027,99.61385879197941,77.29431438127091,31200.0
120.90758750366044,99.62719048132791,77.43308724935653,31233.333333333336
120.81694742844812,99.6598492671424,77.32963950495507,31266.666666666664
121.03532512368416,99.63649954533544,77.59907834101381,31300.0
120.86222893516022,99.73692646764178,77.37803430790808,31333.33333333333
120.8406362221229,99.7351540465145,77.40408119229998,31366.66666666667
121.13516637640059,99.80266017292664,77.77046375784104,31400.0
121.01783008072249,99.98062351158258,77.4789533912721,31433.33333333333
121.2693223641481,99.9079578139981,77.81698264930567,31466.666666666664
121.06129960102685,100.05400055670677,77.52067547088114,31500.0
121.29520922896113,100.03745399437108,77.8361426406458,31533.333333333336
121.3070701759812,100.0448612872298,77.84639532366312,31566.66666666667
121.09082052392294,100.17451210837228,77.54377880184333,31600.0
121.31064237775648,100.18448643800451,77.81611666099651,31633.33333333333
121.1255683048279,100.27300281446202,77.65869235765321,31666.66666666667
121.55859671988705,100.32138590203108,78.01529891852473,31700.0
121.31233998975937,100.38334186721285,77.77472109730175,31733.333333333336
121.30256481869387,100.40490930813513,77.73887880339494,31766.666666666664
121.47421992583284,100.24842899036447,77.91867988642183,31800.0
121.25556641685677,100.1987773278096,77.61434622724946,31833.33333333333
121.8076970980197,100.14206314609541,78.08396126541287,31866.66666666667
121.46580955955956,100.02662037037035,77.56662912912913,31900.0
121.45178358081584,99.89591770236929,77.89341960309703,31933.33333333333
121.45072848298656,99.8990519635681,77.89993638380736,31966.666666666664
120.94329322982712,99.85177682244148,77.45668512046517,32000.0
121.23301951280138,99.70549030574198,77.69214516529951,32033.33333333333
121.021035297042,99.77252672135222,77.40669276659209,32066.66666666667
121.28596507581406,99.72916666666666,77.62468928660203,32100.0
121.42664092664093,100.06135571054924,77.54815356831486,32133.33333333333
121.39827500311372,100.07172437414371,77.57116390584132,32166.666666666664
121.58828932619257,100.12193299290071,77.84988790633952,32200.000000000004
121.188009123493,99.98086859377185,77.46477059380284,32233.333333333336
121.68901714214212,100.05189564564564,77.86061061061059,32266.666666666664
121.48224787287286,100.13047422422424,77.57717092092092,32300.0
121.8716841841842,100.17317317317315,78.07238488488487,32333.333333333336
121.92451826826829,100.17129629629628,78.11408283283284,32366.66666666667
121.46662287287286,100.2997997997998,77.62093343343344,32400.0
121.66353219579024,100.3090515630838,77.98771640303897,32433.33333333333
121.43906464067754,100.39053742682778,77.81369099514261,32466.66666666667
121.6981722505916,100.37009590235395,78.03998007223814,32500.0
121.53773819902851,100.46529767094285,77.78160418482999,32533.33333333333
121.30590078977177,100.33677791742308,77.64249251346025,32566.66666666667
121.67997259932743,100.54401233030264,77.93604433927014,32600.0
121.54346743056419,100.60136691991531,77.7555112716403,32633.33333333333
121.89011950324142,100.63947512301806,78.0042333828009,32666.666666666664
121.5892056549246,100.68473014137312,77.70472545497148,32700.000000000004
121.76325861126298,100.55522924314613,77.96874170116378,32733.333333333336
121.76806998359758,100.55555729125986,77.9881121612122,32766.666666666664
121.44906662500976,100.53289072873545,77.60790439740686,32800.0
121.47109271264549,100.17333437475591,77.56025931422323,32833.333333333336
121.161866359447,100.03261614148713,77.37414372898245,32866.666666666664
121.54015465125359,100.00635788487072,77.704631726939,32900.0
121.29211903460128,100.0680621729282,77.4038428493322,32933.33333333333
121.28560493634303,100.0724517691166,77.38609700851362,32966.66666666667
121.52487698195736,99.98233226587514,77.72468952589236,33000.0
121.33610872451769,100.04855112083105,77.45706475044909,33033.33333333333
121.51848785440912,99.99828165273763,77.72073732718894,33066.66666666667
121.27515426072011,100.07734124814495,77.42594704366164,33100.0
121.50892759509487,100.02758728423024,77.75004295868155,33133.333333333336
121.53279700070296,100.01512145590875,77.78233226587518,33166.666666666664
121.39020715630885,100.06886377903326,77.41214689265537,33200.0
121.32144413999252,99.89072424959521,77.72845310748536,33233.333333333336
121.22949512012012,99.97811874374376,77.33139389389389,33266.666666666664
121.84186046511627,100.22055971620024,77.75572723689397,33300.0
120.74626542541678,100.01416509448549,77.2537809668141,33333.333333333336
120.7432035381808,100.01735069433708,77.24799740203507,33366.666666666664
121.36981566820276,100.17734151201893,77.7373271889401,33400.0
121.22135384232159,100.27617075600945,77.51407398181591,33433.33333333333
121.4740783410138,100.29321833354088,77.77621746170132,33466.66666666667
121.28876572424959,100.36198468053308,77.56053057665959,33500.0
121.54002677793001,100.36601693859758,77.93556171378752,33533.33333333333
121.54735957155312,100.36388404533564,77.95376136505169,33566.66666666667
121.3832824760244,100.42981691368787,77.64936480259061,33600.0
121.61944202266784,100.43255698094409,77.98566135259685,33633.333333333336
121.53306431431429,100.56276589089089,77.65086961961961,33666.666666666664
121.73986486486488,100.5344094094094,77.93671796796797,33700.0
121.32831400423994,100.49772415513156,77.64273911959098,33733.333333333336
121.29659246788877,100.52017084424492,77.60616972191049,33766.666666666664
121.5816965955855,100.35671530115977,77.99671093652576,33800.0
121.14992517770295,100.32496258885149,77.44631500187056,33833.333333333336
121.11011969195559,100.0075619336282,77.70627532242601,33866.666666666664
120.87888534933352,100.0410107320694,77.39366900689699,33900.0
121.19003231419336,99.93301019139945,77.655947054437,33933.33333333333
121.18103716132241,99.9374689286602,77.65711222967934,33966.66666666667
120.88132301764851,99.95589423315931,77.31478374347502,34000.0
121.32580800322737,100.01857282502444,77.70185728250244,34033.33333333333
121.08634734441185,100.09703796800571,77.47611289546774,34066.66666666667
120.96378313178488,99.99418550706707,77.5156032536418,34100.0
120.68068677465591,99.88127860918884,77.37089838632616,34133.333333333336
120.68810011867515,99.87882804432594,77.36313055808147,34166.666666666664
120.84521369233852,99.84163802536871,77.63605258696424,34200.0
120.68840836582771,99.93460536658293,77.42370112356087,34233.333333333336
121.028697809904,100.01501163633002,77.72265462447791,34266.666666666664
121.23495760069835,100.33651328095772,77.46700024940765,34300.0
121.12015587789566,100.13809420715677,77.70197630903412,34333.333333333336
121.2207618692518,100.16278274919212,77.70842654735272,34366.666666666664
120.90839080815269,100.2507036155012,77.34800358766586,34400.0
120.9536704529692,100.15258234052065,77.6593098346254,34433.33333333333
120.79450703574128,100.24165035525485,77.37524467117736,34466.66666666667
121.04797866929705,100.21566512029345,77.76764329639505,34500.0
120.89884869688515,100.33037929812124,77.51215264398995,34533.33333333333
120.89612070958496,100.33421697517069,77.51344728203074,34566.66666666667
121.16960857178249,100.269029480986,77.73126470952558,34600.0
120.90633910269254,100.29391365997256,77.49046745680688,34633.333333333336
120.92963133640556,100.08350230414746,77.73125960061444,34666.666666666664
120.68885802469136,100.03421296296295,77.3642901234568,34700.0
121.18488664210965,99.98693032073116,77.8627067182467,34733.333333333336
120.97614439324116,99.88548387096779,77.80364055299539,34766.666666666664
120.67567775842673,99.99730283741505,77.26738899249419,34800.0
120.88354422576022,99.90737173065365,77.65487107562844,34833.333333333336
120.72462740625434,99.95081916680796,77.38829893808855,34866.666666666664
120.96005116902731,99.91187213908111,77.65934065934066,34900.0
120.81500061934842,99.926731078905,77.32924563359346,34933.33333333333
120.81046389198565,99.92674656261612,77.31212064907717,34966.66666666667
120.9786847094,99.93773407518148,77.65185025353328,35000.0
120.74230538045408,99.98623676463792,77.40586902578488,35033.33333333333
121.00083226731194,100.00069355609327,77.63549774208961,35066.66666666667
120.89738944630251,100.04432986498205,77.42222531896445,35100.0
121.06580577232752,100.09886349560264,77.60850984764029,35133.333333333336
121.0829772079772,100.09342871299393,77.61253561253561,35166.666666666664
120.92598786077049,100.14605784714479,77.43066394153352,35200.0
121.38155090612119,100.13363926265848,77.79209768997433,35233.333333333336
120.89605784714479,100.28342933234238,77.47274866840084,35266.666666666664
121.06883158916821,100.2484780296842,77.78673920749657,35300.0
120.72350308641977,100.25779320987655,77.3712037037037,35333.333333333336
120.72782407407408,100.24233024691358,77.38722222222222,35366.666666666664
120.9352995391705,100.28284178187404,77.78875576036866,35400.0
120.94987922705316,100.38206057227795,77.40568871547133,35433.33333333333
121.06185185185188,100.23444444444445,77.65404320987655,35466.66666666667
120.88608726476886,100.44618775334064,77.48131251637564,35500.0
121.10011867515374,100.34804185996332,77.78342555060648,35533.33333333333
121.09329100072438,100.36229829076954,77.7832714270302,35566.66666666667
120.59198156682028,100.19860215053764,77.28869431643625,35600.0
120.84161290322581,100.02918586789556,77.594178187404,35633.333333333336
120.57463901689708,100.01920122887863,77.27632872503841,35666.666666666664
121.08663136380528,99.98669949213428,77.58000433543911,35700.0
120.90070516190892,100.06218105341291,77.4326384808091,35733.333333333336
120.67763512784548,99.9419878858869,77.35673442966569,35766.666666666664
120.97005450266322,99.84819769602379,77.5571813452248,35800.0
120.72242343911348,99.91816038099348,77.34052062944069,35833.333333333336
121.2756935638512,99.991773111063,77.75175517273375,35866.666666666664
120.96305632016826,100.0258404725822,77.46849967525439,35900.0
121.18722357962454,100.0052423220858,77.80796709244427,35933.33333333333
121.2104815513562,100.00156187177187,77.83141063309931,35966.66666666667
120.93532923019826,100.07722760028454,77.43786533881794,36000.0
121.21610116828235,100.02234029331345,77.67098558289833,36033.33333333333
121.01575316927664,100.09467437235891,77.3943729803629,36066.66666666667
121.03977765390808,99.96626099343493,77.54131054131055,36100.0
120.80811614752709,100.10132083904877,77.41530138865342,36133.333333333336
120.97092753533542,100.20044536541614,77.44055608820709,36166.66666666666
121.41855070670832,100.19995051495377,77.94691182383325,36200.0
121.11805276343055,100.28893081371972,77.50981968886278,36233.333333333336
121.38671389510316,100.24577429778772,77.75518891374595,36266.66666666666
121.1599397216008,100.35742915734524,77.44352783992045,36300.0
121.26610583614266,100.3903442303529,77.79861132588995,36333.333333333336
121.3028020907432,100.38333900349492,77.80478149259271,36366.66666666666
121.17243040019883,100.46636527467064,77.46568170519512,36400.0
121.18806515545643,100.29335439118047,77.74122073578596,36433.33333333333
121.10566603779421,100.58078433798288,77.57198527819875,36466.66666666667
121.32089506077385,100.5351034546748,77.88445241703523,36500.0
121.11584140042679,100.61081557541831,77.64469736801409,36533.33333333333
121.10526397179352,100.62043423128073,77.65341910741348,36566.66666666667
121.243450963412,100.56327900287631,77.78897720595059,36600.0
121.02393839111744,100.4584480252374,77.54017567191416,36633.333333333336
121.3152970649182,100.2140846812854,77.89867936782855,36666.66666666666
120.88060186187487,100.12096000989702,77.37636470479076,36700.0
121.09433086939043,99.99724739430306,77.6554912937247,36733.333333333336
121.11754244889124,99.99045866452231,77.66733677666781,36766.66666666666
120.85493149413912,100.03261373828596,77.3562768688337,36800.0
121.09072773946123,99.87212754770668,77.70980113197044,36833.333333333336
120.84427674512108,99.95017474406951,77.41555067578017,36866.66666666666
121.14973278647774,99.88096569724085,77.52749813571961,36900.0
120.92965448670144,99.92779020631369,77.30512055679841,36933.33333333333
120.933383047477,99.91834451901563,77.31927355207557,36966.66666666667
121.20050335570468,99.87931891623172,77.54207059408401,37000.0
120.81190387712128,99.84796544035677,77.27590424873034,37033.33333333333
121.13150651037641,99.90368972876007,77.5855936659141,37066.66666666667
120.82927660101574,99.91024092654527,77.20481853090548,37100.0
121.1591260993435,99.96263780502913,77.62148519757216,37133.333333333336
121.16620215533258,99.97847764152112,77.62515483711138,37166.66666666666
120.78078161773813,100.05176204632728,77.22163384119906,37200.0
120.96666307044993,99.9906446989196,77.62144167193256,37233.333333333336
120.78182266541313,100.07921951820973,77.3802845121218,37266.66666666666
121.02025183792364,100.07735462293668,77.64976958525345,37300.0
120.96858355010531,100.17730397621702,77.35313699987613,37333.333333333336
121.02594695496616,100.14415493505484,77.27292525472505,37366.66666666666
121.23486840070515,100.26502335075621,77.65416138310704,37400.0
121.05396962855288,100.38629264219222,77.40095258714007,37433.33333333333
121.10984387281721,100.29731979100843,77.64779680347705,37466.66666666667
121.06921720842483,100.48823183744163,77.43554572727554,37500.0
121.35831812699101,100.46192744255094,77.77249249992269,37533.33333333333
121.34673553335602,100.49704636130272,77.7773946123156,37566.66666666667
121.21561956251551,100.59120991797165,77.46091225453641,37600.0
121.36263736263737,100.4259513277746,77.97191868440116,37633.333333333336
120.980426305812,100.4182297366028,77.52400474700616,37666.66666666666
121.18197370651792,100.26291940878195,77.82311237149948,37700.0
120.87818072530555,100.30559622705485,77.46338794445388,37733.333333333336
120.87246274062544,100.305673288843,77.45437171524128,37766.66666666666
121.0425226946966,100.1252254057303,77.69409552579258,37800.0
120.80380068739115,100.17183237519843,77.40013562874714,37833.333333333336
121.05113820261086,100.01320839048748,77.68373842146633,37866.66666666666
120.74688285066964,100.05636299184687,77.36894101690736,37900.0
121.08833457203023,99.94805214913912,77.65841384863124,37933.33333333333
121.10048928527188,99.94586894586895,77.68953610801438,37966.66666666667
121.08232351478995,100.08999813571958,77.42160700969426,38000.0
121.22111918965945,100.09605704697987,77.49895911011683,38033.33333333333
121.34797044519269,100.2420345429605,77.44966641725901,38066.66666666667
121.26317663817663,99.96028428093643,77.75658057723275,38100.0
120.84361080714515,100.03074765346857,77.33954965091009,38133.333333333336
120.99992267961528,100.11021247641727,77.33523026010576,38166.66666666666
121.24906442334458,100.06488726687904,77.64410973309003,38200.0
121.05517582655493,100.17663068691431,77.38403488695761,38233.333333333336
121.30745677790493,100.15111495994805,77.7115795008196,38266.66666666666
121.07331518881641,100.28557510902176,77.41547335539542,38300.0
121.3268178022454,100.24501283518387,77.69973401787648,38333.333333333336
121.33331271456407,100.26372436829249,77.71399189682369,38366.66666666666
121.18896035297041,100.3654455630127,77.36563199105143,38400.0
121.39742677759564,100.37435437478737,77.75294590665884,38433.33333333333
121.3752889881922,100.57471799407284,77.4994957253022,38466.66666666667
121.39383911174343,100.480809080506,77.80473510036187,38500.0
121.2654113845389,100.55592841163308,77.46650509569972,38533.33333333333
121.26583084762615,100.55530698483715,77.45598744717871,38566.66666666667
121.77020202020205,100.73735814939519,77.90902855717671,38600.0
121.47326661678514,100.82483788502307,77.58376979673277,38633.333333333336
121.66428170594835,100.76323419378977,77.83221099887767,38666.66666666666
121.4508199276718,100.82898428731762,77.56599950118468,38700.0
121.52897402435991,100.58291387024609,77.75279642058166,38733.333333333336
121.5581966194382,100.57354586129752,77.78189473030076,38766.66666666666
121.20834886900322,100.544665050957,77.47048222719363,38800.0
121.60445504426987,100.43482666167853,77.77004614041651,38833.333333333336
121.15950472284365,100.32014354958986,77.49578983345761,38866.66666666666
121.35801951280138,100.16338864031816,77.71703330847626,38900.0
121.07779977113172,100.22674976030682,77.52837658120188,38933.33333333333
121.0719698141218,100.21663625398199,77.53179414220766,38966.66666666667
121.28381220424956,100.12680543098385,77.78226579655461,39000.0
121.08041320013606,100.2045742739616,77.5061237744719,39033.33333333333
121.53542132736764,100.05145413870243,77.77408028834203,39066.66666666667
121.06480994649431,100.13767667707916,77.47253579933816,39100.0
121.28797204094887,100.10527943587047,77.81152383014259,39133.333333333336
121.30926607490801,100.10931555995424,77.81814245507688,39166.66666666666
121.23713323713324,100.25117534794956,77.53823953823955,39200.0
121.47653183137056,100.22143089885029,77.81101335940045,39233.333333333336
121.27986469921954,100.3004235907462,77.57828670731897,39266.66666666666
121.48998432869402,100.30813511458672,77.82601747117877,39300.0
121.30492327266522,100.4375707924095,77.52242858694473,39333.333333333336
121.26797933249549,100.45760213502147,77.51088457540071,39366.66666666666
121.32497757708843,100.33543129310611,77.80748770605885,39400.0
121.31836025384413,100.50089217831156,77.59788359788361,39433.33333333333
121.28293075186345,100.46890174125507,77.71759502675286,39466.66666666667
121.176120372375,100.51311353725298,77.58240806606254,39500.0
121.75512420673712,100.60365560365558,77.9772378159475,39533.33333333333
121.76237024624123,100.6187838445903,78.00387903613709,39566.66666666667
121.36290710484259,100.75430185107605,77.51212586696458,39600.0
121.84039108232656,100.87476647154064,78.00772200772201,39633.333333333336
121.63734587121685,100.9755573545896,77.78752023913314,39666.66666666666
121.94306576161414,100.90806762984181,78.03709988790634,39700.0
121.7086343255698,101.04008905218582,77.77470731099763,39733.333333333336
121.71658986175116,101.04679910325069,77.75368974965748,39766.66666666666
121.7045105432202,100.82590885816693,77.97117100342908,39800.0
121.71814671814673,100.97426516378128,77.83849171752397,39833.333333333336
121.47732966319242,100.60466087279251,77.94921597129868,39866.66666666666
121.37859392698105,100.64319073996494,77.61676674579901,39900.0
121.60236776365808,100.44672531769308,77.88969572840541,39933.33333333333
121.61220499930178,100.4442117022762,77.88063429998914,39966.66666666667
121.31117627891823,100.45924684634363,77.56498937144099,40000.0
121.73754514883551,100.49685515008095,77.91952609291319,40033.33333333333
121.28762277149374,100.21913450945708,77.45521264876105,40066.66666666667
121.30278662666626,100.05075310054742,77.71570840936505,40100.0
121.25457338360563,100.16794674859192,77.52121832766994,40133.333333333336
121.2515167031296,100.15561141367594,77.50531427950783,40166.66666666666
121.41757019738672,100.1326722886356,77.8668798072468,40200.0
121.24799453831713,100.21977067138359,77.51017083275148,40233.333333333336
121.61581019092488,100.3195357054302,77.96888172576246,40266.66666666666
120.97013730681608,100.16310572009114,77.47835724401206,40300.0
121.42598023243185,100.20728017502212,77.72792440534376,40333.333333333336
121.43663982373656,100.2049993017735,77.7455662616953,40366.66666666666
121.2384055609862,100.28053189343511,77.51058976865428,40400.0
121.45707458610686,100.23738149544602,77.80224673773061,40433.33333333333
121.27694766404444,100.33545904513649,77.54533041629816,40466.66666666667
121.44420561036712,100.26673986329756,77.95991711254756,40500.0
121.24543437446665,100.49960433831406,77.53755682787941,40533.33333333333
121.22906484196808,100.5080296048038,77.50975189684867,40566.66666666667
121.54590451364643,100.42256668063119,77.80302254495805,40600.0
121.14615099124737,100.45337580799804,77.5072835802431,40633.333333333336
121.57294915359431,100.50872783130848,77.86077363496719,40666.66666666666
121.33553662585922,100.64969200453072,77.54562522304458,40700.0
121.39215352735596,100.53748492252498,77.78781740017939,40733.333333333336
121.41125166238828,100.53239724120868,77.80294126743577,40766.66666666666
121.38939316358672,100.73544973544978,77.54885258111067,40800.0
121.4468654316024,100.60642377756471,77.83297250487121,40833.333333333336
121.2372344044784,100.69212569201746,77.52268580088455,40866.66666666666
121.36275631707544,100.6410169177002,77.70148145857175,40900.0
121.17738842668484,100.5675780162682,77.48639161228466,40933.33333333333
121.17025948721123,100.55732533325087,77.4989948349983,40966.66666666667
121.46982958587203,100.3536015835215,77.87860699594842,41000.0
121.12740802883421,100.30805679840914,77.39637708177976,41033.33333333333
121.31023179219488,100.18858749689285,77.69753604275415,41066.66666666667
121.265447686744,100.363371368001,77.44109302905599,41100.0
121.19404323755914,100.10540314848608,77.64669223394057,41133.333333333336
121.24524479633811,100.08417097083479,77.66606872235795,41166.66666666666
120.99375251291252,100.14279528654936,77.34716852751059,41200.0
121.27379148238644,100.05615006340271,77.62275384282313,41233.333333333336
120.95492888368942,100.16193584138908,77.38031833015208,41266.66666666666
121.25322426004392,100.026211610429,77.59205765007889,41300.0
121.05579438963294,100.07874307982556,77.34331797235023,41333.333333333336
121.04693347354096,100.06638728234311,77.35219435251909,41366.66666666666
121.20837843689112,100.05506757801628,77.59556799554635,41400.0
121.06912442396316,100.1461973834782,77.38165341910742,41433.33333333333
121.53273130692486,100.27364272525564,77.73980977206784,41466.66666666667
120.88283525730931,100.10693093722547,77.34702464435985,41500.0
121.33069928555966,100.18150187115332,77.74359014010456,41533.33333333333
121.34644171589399,100.18317199146385,77.7795595830885,41566.66666666667
121.14664584170973,100.30716296044292,77.44955618099156,41600.0
121.37899359787217,100.27074505922742,77.79455973772926,41633.333333333336
121.0791606099032,100.4612160950113,77.46418519778555,41666.66666666666
121.2929360096496,100.41893730863205,77.7610336189033,41700.0
121.31092802060543,100.627348756381,77.58261571164797,41733.333333333336
121.33164207357756,100.63070024360347,77.56714611553322,41766.66666666666
121.59212710825615,100.60840354388742,77.92268305171531,41800.0
121.44332728203699,100.73250166798556,77.67547983677017,41833.333333333336
121.71330819717916,100.68390510325995,77.99410386507161,41866.66666666666
121.50202485686356,100.80128473676862,77.67928129218454,41900.0
121.61839297312343,100.5595985525624,78.02426313673338,41933.33333333333
121.63014567160488,100.55704697986576,78.06825843565399,41966.66666666667
121.34780989619699,100.52723859175472,77.55018696954181,42000.0
121.55054384086641,100.40624369656628,77.83791835404739,42033.33333333333
121.31040047169078,100.38874148551572,77.55108690592563,42066.66666666667
121.51319648093842,100.23084919859112,77.8947850238173,42100.0
121.26256419804808,100.24302937206163,77.54503560955176,42133.333333333336
121.22203602848765,100.26397616720196,77.49595804434514,42166.66666666666
121.3623950720725,100.20655091622835,77.65819485174325,42200.0
121.2371487532778,100.22377383667707,77.52407329826686,42233.333333333336
121.50927089636768,100.06398858011762,77.83658396561624,42266.66666666666
121.28298344427378,100.09767412993219,77.49494949494951,42300.0
121.35160671759505,99.96939659171746,77.71702285590574,42333.333333333336
121.32601367024405,99.99251538675658,77.72152290229795,42366.66666666666
121.28666077053177,100.1312045183013,77.43352107868238,42400.0
121.59026517091034,100.1346956508247,77.7941628264209,42433.33333333333
121.03527355952123,100.02528376581205,77.42854050041754,42466.66666666667
121.2722760028454,99.97907710388769,77.78781740017939,42500.0
121.20904901550064,100.18228366615463,77.54283231702587,42533.33333333333
121.16935871774582,100.20692330369751,77.52228894164378,42566.66666666667
121.39047929370513,100.18529379819704,77.76317708575773,42600.0
121.07085640058146,100.19627006463983,77.48566480066806,42633.333333333336
121.46081397694302,100.23876243231079,77.78871665968441,42666.66666666666
121.27944576331673,100.34242579403869,77.61183261183261,42700.0
121.47341308631631,100.33080420177194,77.81161848903784,42733.333333333336
121.48802929448091,100.33967943645365,77.82353488805103,42766.66666666666
121.27308414405191,100.46078294465393,77.55282471411505,42800.0
121.49071358748779,100.4424428617977,77.78714952908501,42833.333333333336
121.33286784899687,100.55518316808642,77.5535229406197,42866.66666666666
121.76067898648544,100.55176961628577,78.07838756225856,42900.0
121.33904327452714,100.70053841021584,77.57046657046658,42933.33333333333
121.34000527548916,100.69399059721641,77.55071451845645,42966.66666666667
121.38589057619151,100.43651996412336,77.78979680202889,43000.0
121.26015506749451,100.5284650789238,77.59138788496588,43033.33333333333
121.48050396437496,100.30377507796864,77.83180499309532,43066.66666666667
121.19767568154666,100.25187357445421,77.50792099179195,43100.0
121.35097518968487,100.12727893373057,77.66896305605985,43133.333333333336
121.36801191639904,100.10918710918713,77.6972955360052,43166.66666666666
121.11402814628622,100.126782417105,77.41170537944733,43200.0
121.37091343542956,99.98254433738306,77.70027463575852,43233.333333333336
121.14529317755124,100.04550885196049,77.39142577852256,43266.66666666666
121.335219478738,99.9985191420377,77.4908186806335,43300.0
121.145370758274,100.01790563080887,77.35473009666559,43333.333333333336
121.12569628698662,100.02026408478022,77.34230166488231,43366.66666666666
121.50276963180193,99.90099148163664,77.77228506260766,43400.0
121.25910337947376,99.9536725277466,77.379130814316,43433.33333333333
121.50717047013343,99.90832709814192,77.69062538969949,43466.66666666667
121.25090410275595,100.02501870557428,77.35668412520266,43500.0
121.37414079349564,100.0015360983103,77.64578193610453,43533.33333333333
121.48037473500436,100.02230639730641,77.64465644095273,43566.66666666667
121.145370758274,100.11198001520584,77.3308507502056,43600.0
121.18239878761636,99.99154114990877,77.59906287693687,43633.333333333336
121.09212652249563,100.09470544369871,77.2953796917723,43666.66666666666
121.31403803131992,100.10042257022123,77.56667909520256,43700.0
120.96107395020441,100.070079276601,77.27434039390562,43733.333333333336
120.93667162145424,100.08485073702464,77.25365415582806,43766.66666666666
121.14149015235971,100.07875015483714,77.59006874767745,43800.0
120.95698625046451,100.1876935463892,77.317570915397,43833.333333333336
121.3208070110244,100.28801251083858,77.74004397373962,43866.66666666666
121.2794911815202,100.39327298267521,77.44042453566409,43900.0
121.30335686857427,100.29456212064908,77.80821875387093,43933.33333333333
121.32100829926917,100.29716338411993,77.85448408274495,43966.66666666667
121.0605722779636,100.42357240183328,77.46178620091662,44000.0
121.32469342251952,100.22380156075808,77.77048494983278,44033.33333333333
121.06453610801435,100.21717453239192,77.42971943515424,44066.66666666667
121.23504273504274,100.03321256038649,77.7242815558033,44100.0
121.17218182948048,100.11171700223713,77.42654735272184,44133.33333333334
121.16674434501616,100.10752237136464,77.41337310464827,44166.66666666666
121.31282624906784,99.996799652001,77.625,44200.0
121.07912316679096,99.9665827740492,77.31596445438727,44233.33333333334
121.18563571961222,99.9593742232165,77.41669773800645,44266.66666666666
120.98546376766771,99.96028825039434,77.2660903720657,44300.0
121.35981814245508,99.86543160238766,77.74422416725946,44333.33333333334
121.55926391410264,99.9441263634812,77.7971108938851,44366.66666666666
121.0915142205465,99.96414218994863,77.32270477431769,44400.0
121.24224476540995,99.847354096434,77.61011969195559,44433.33333333333
121.01637645748926,99.93126217796059,77.35038505551604,44466.66666666667
121.20615160981043,99.88125135310676,77.64706337178735,44500.0
121.15146860308151,100.08557153718444,77.3769181833698,44533.33333333333
121.19356390324131,100.06287141771013,77.43248149699762,44566.66666666667
121.224863142919,99.9476540995268,77.67749667522347,44600.0
121.18053034182068,100.16493661654951,77.37358221229191,44633.33333333334
121.39938556067592,100.1500256016385,77.63544818383528,44666.66666666666
121.32385584237436,100.25676518269111,77.35777528370122,44700.0
121.43554250559284,100.11671948794432,77.63587496892865,44733.33333333334
121.46687795177729,100.12285607755405,77.71330474770072,44766.66666666666
121.38280957725405,100.34982541464024,77.39061915450804,44800.0
121.68673790069136,100.58598365807669,77.57047454431175,44833.33333333334
121.65315839094907,100.5645034569453,77.5534255185418,44866.66666666666
121.85468280780779,100.59210773273271,77.95492367367369,44900.0
121.68086836836837,100.7074105355355,77.70482982982983,44933.33333333333
121.65334084084084,100.7255223973974,77.70257757757756,44966.66666666667
121.88973348348348,100.64592717717716,77.97488113113113,45000.0
121.68445007507508,100.69532032032032,77.7072854104104,45033.33333333333
121.91228618292587,100.58109818011404,78.04892603296102,45066.66666666667
121.66640631102085,100.53459345465906,77.69917987971569,45100.0
121.65355274629472,100.28621247976086,77.92315356831486,45133.33333333334
121.83614777786457,100.37289697727094,77.97436538311331,45166.66666666666
121.29522072577628,100.11555368499813,77.44149831649833,45200.0
121.6876564064064,100.1259227977978,77.72866616616615,45233.33333333334
121.33884979449495,100.18070432183336,77.44807883920788,45266.66666666666
121.53110211174729,99.86075811882263,77.79841425002716,45300.0
121.24357775283704,99.85736999625892,77.3219385210126,45333.33333333334
121.4649806056056,99.97095533033031,77.40427927927928,45366.66666666666
121.40310943536751,99.75864637154959,77.69824202082269,45400.0
121.386583011583,99.98960019927765,77.55883360318843,45433.33333333333
121.4139707365514,99.78427904234356,77.76061692190726,45466.66666666667
121.14937392356748,99.90895126379,77.37598721469689,45500.0
121.35061831836029,99.83810454778198,77.69428540396281,45533.33333333333
121.36459836459835,99.85102949619079,77.72098868873063,45566.66666666667
121.38589799476894,100.07704882301657,77.51547515257192,45600.0
121.31005911651071,100.00254464770596,77.61191019255536,45633.33333333334
121.22327732005152,100.00923210600632,77.49634594795886,45666.66666666666
121.24901803111374,99.89334426128107,77.71822905390779,45700.0
121.24206737109964,100.1177675371224,77.50982947757142,45733.33333333334
121.23046129497743,100.11472637279093,77.4656860463312,45766.66666666666
121.58578100513586,100.13378019829634,77.97256745643844,45800.0
121.21544166705458,100.24793247373891,77.52543871898712,45833.33333333334
121.45693494080594,100.15761299632268,77.80890316374187,45866.66666666666
121.21140746947201,100.2464118915732,77.51093112383434,45900.0
121.35519558100205,100.22396003041165,77.78533414017285,45933.33333333333
121.351657900045,100.23201290943227,77.80497757917114,45966.66666666667
121.16825707148287,100.35189064221323,77.48154354605968,46000.0
121.39634439634442,100.29364303557851,77.81363558782914,46033.33333333333
121.169250104734,100.37420285807384,77.48568635665409,46066.66666666667
121.326194039157,100.36859334081556,77.55851727148024,46100.0
121.12302032672405,100.2341158498566,77.32758136924805,46133.33333333334
121.11627073201149,100.21891757076945,77.35814939518643,46166.66666666666
121.53808495995995,100.13355543043043,77.6880005005005,46200.0
121.28201639139141,100.11275337837836,77.41411724224223,46233.33333333334
121.70216355541667,99.99593845192531,77.85086307896586,46266.66666666666
120.83168086393894,99.6662632469084,77.25649738552966,46300.0
121.07567223696256,99.58599823115952,77.54467873822713,46333.33333333334
121.10279445763321,99.57914009526914,77.57324396034075,46366.66666666666
120.83597883597885,99.63409827925959,77.24400688916819,46400.0
121.0718707815482,99.54917842014616,77.46115533212308,46433.33333333333
120.91160057363764,99.60341064970696,77.14769609677019,46466.66666666667
121.0563856692889,99.55811571940605,77.46222594609692,46500.0
120.88040155782093,99.58983071886298,77.18439386181322,46533.33333333333
120.87722074818848,99.59087030054772,77.2069543359866,46566.66666666667
121.1106122957975,99.62447000872929,77.27653073949371,46600.0
120.7823918717375,99.57076497638576,77.10177417350233,46633.33333333334
121.00863783246332,99.55791697738006,77.39839671886652,46666.66666666666
120.7402808276374,99.68513592923641,77.1970432684873,46700.0
121.13243435499336,99.66597593789629,77.67918225961094,46733.33333333334
121.1978933631618,99.64945314441958,77.6339485458613,46766.66666666666
121.06478363885773,99.89909901483976,77.33083925676519,46800.0
121.47639827327328,99.96457394894895,77.62701764264264,46833.33333333334
121.09198466142912,99.97109988776657,77.30677141788253,46866.66666666666
121.25551986842312,99.97252090800478,77.69912644106194,46900.0
121.09170041428106,100.07396546106224,77.46868066222906,46933.33333333333
121.13706509539844,100.04585983289688,77.37662114976929,46966.66666666667
121.49406837713288,100.13675426578651,77.77607734462573,47000.0
121.15458734813576,100.1710499775016,77.55917081723534,47033.33333333333
121.65870558058056,100.24418168168171,77.73293606106105,47066.66666666667
121.26440329218107,100.22120900361642,77.37839817932411,47100.0
121.31856196372328,100.26380548961195,77.52920914211238,47133.33333333334
121.1625893050444,100.18498128846693,77.52670646089136,47166.66666666666
121.24423244793616,100.28566529492457,77.34371492704827,47200.0
121.46976679234743,100.05782867073192,77.72764511474189,47233.33333333334
120.95814413245607,100.00806227411734,77.36715781669909,47266.66666666666
121.12342075186113,99.8847650820128,77.62084144194236,47300.0
120.98311843473135,99.86806622290493,77.28824341727568,47333.33333333334
120.98505795279988,99.85874102003136,77.27846824621018,47366.66666666666
121.27466018206759,99.72314191295672,77.48007856341191,47400.0
120.76694089629791,99.666671821359,77.2393993752513,47433.33333333333
121.00139176692544,99.57925339436493,77.58277920390933,47466.66666666667
120.94549178420151,99.72852953498115,77.2826731213828,47500.0
121.20368042948692,99.61909416748126,77.46792037114618,47533.33333333333
121.22479790221728,99.60340734534284,77.50604353830161,47566.66666666667
120.97205542366837,99.68379649024813,77.22571335474562,47600.0
121.18752812301202,99.61879936073484,77.47879718847463,47633.33333333334
121.01017859082377,99.69852131142454,77.22485996679545,47666.66666666666
121.28307654114107,99.75307607565672,77.54713028906578,47700.0
120.95076727334794,99.8003537680957,77.24133811230584,47733.33333333334
120.93419603097023,99.79926763797731,77.2350385576192,47766.66666666666
121.20346320346322,99.7179009759655,77.57713851262237,47800.0
121.06191545080436,99.8672527746602,77.2715737623145,47833.33333333334
121.18818150928243,99.88002347635376,77.68920087727426,47866.66666666666
121.14881843122585,99.97895622895624,77.3161865569273,47900.0
121.23550489605536,99.96963518981869,77.7411268649801,47933.33333333333
121.26831001142929,99.9752571587434,77.75365273530413,47966.66666666667
121.0848422783907,100.09263138295395,77.35958664990923,48000.0
121.13631583830762,99.97855132527141,77.66381096712337,48033.33333333333
121.14648792068148,100.18372666759764,77.40002172260238,48066.66666666667
121.36566897857222,100.18493692687242,77.72783130847648,48100.0
121.10355852098972,100.33195873104131,77.55964847249251,48133.33333333334
121.1018904642758,100.33131004231925,77.56919346368889,48166.66666666666
121.3936071505892,100.20887328735348,77.94179321436305,48200.0
121.20968517742712,100.42804387965677,77.47907647907648,48233.33333333334
121.45681081164952,100.31707241384665,77.86719731881023,48266.66666666666
121.10627683563463,100.30542427331423,77.52520619034381,48300.0
121.28466623420752,100.06871466963213,77.78208692428876,48333.33333333334
121.28315262718935,100.07208167299913,77.82758780465203,48366.66666666666
120.95604361659409,100.06792697618387,77.45303184752727,48400.0
121.18805567192663,99.84161119644993,77.58286396996074,48433.33333333333
121.06829593354824,100.00726816265808,77.39317815521945,48466.66666666667
121.2393844532606,99.85524113563105,77.64368956112075,48500.0
120.95865360773618,99.87193156459213,77.30909062732458,48533.33333333333
120.95411294321845,99.87207103892885,77.29813414331764,48566.66666666667
121.29122997978544,99.85978852433529,77.57606904058467,48600.0
120.93160729854277,99.7940278988666,77.17156557479137,48633.33333333334
121.0505205666496,99.62848143493305,77.43366072398332,48666.66666666666
120.87626262626264,99.62797730390324,77.05661553809702,48700.0
121.0211485050195,99.5769833511769,77.51622212912538,48733.33333333334
121.13159371492706,99.57881281955356,77.52565781269486,48766.66666666666
120.9019827908717,99.71938521012596,77.13605187679262,48800.0
121.18506048135679,99.68749220601072,77.36156316248909,48833.33333333334
120.97208193041529,99.80307706696595,77.17154570395311,48866.66666666666
121.44394394394396,99.90409159159158,77.58932369869868,48900.0
121.42835844318896,100.12779347143757,77.36381042059007,48933.33333333333
121.42162586315128,100.12984934086629,77.36222536095417,48966.66666666667
121.69176082862523,100.13275266792215,77.69562146892655,49000.0
121.48483992467042,100.23826114249843,77.42741682360327,49033.33333333333
121.53716216216215,100.09193568568571,77.66758946446447,49066.66666666667
121.55709353421216,100.326710608914,77.43924984306341,49100.0
121.78195382882885,100.26115177677677,77.89203265765765,49133.33333333334
121.78642705205203,100.27888826326328,77.9162130880881,49166.66666666666
121.38491616616615,100.44394394394396,77.46695132632631,49200.0
121.43465519391451,100.26960967701707,77.65935590472628,49233.33333333334
121.2349420127198,100.38000374111486,77.39863137548323,49266.66666666666
121.44505237560793,100.2911522633745,77.66674460655943,49300.0
121.02314814814814,100.2305804126274,77.35359184688043,49333.33333333334
121.00403927417351,100.23079791200595,77.35259756400694,49366.66666666666
121.14404787678222,100.07560387220488,77.6829400303096,49400.0
120.92380849287107,100.05760368663596,77.34579222466212,49433.33333333333
121.12563696246582,99.85301702709421,77.56131928908773,49466.66666666667
120.87885284613472,99.86676609495399,77.23931145911011,49500.0
120.9674061645538,99.84029331344769,77.35287720606512,49533.33333333333
120.96064814814814,99.83999813571958,77.34316741237882,49566.66666666667
120.75691337310465,99.77459296544866,77.13430586626895,49600.0
121.14819475515785,99.63818978374347,77.5811117325379,49633.33333333334
120.7259301642285,99.63596016453779,77.25413664058394,49666.66666666666
120.95690405170272,99.52171886651753,77.38968120805369,49700.0
120.77937795177729,99.62094519015659,77.11216753666417,49733.33333333334
120.76126336067611,99.60979057916977,77.09751739995029,49766.66666666666
121.01148086005469,99.52934688043749,77.44786229182202,49800.0
120.99766180321735,99.72814565407158,77.12802406783891,49833.33333333334
121.24625888514778,99.69509913954359,77.45028993640105,49866.66666666666
121.04141725900986,99.84291994014215,77.10687118094526,49900.0
121.48201830863121,99.96825569809441,77.6271795989538,49933.33333333333
121.27063259321324,99.83763906344551,77.56624617914942,49966.66666666667
121.18272823514756,100.1374237140366,77.3311433553369,50000.0
121.10379019553328,99.93859080097613,77.52414048744325,50033.33333333333
120.96887838630958,100.05790319093072,77.31821270812097,50066.66666666667
121.3022889444908,100.11909616038058,77.69760294072222,50100.0
120.99725079541595,100.19673802242608,77.40045717109938,50133.33333333334
121.09076944560816,100.22371177209887,77.33814333814334,50166.66666666666
121.5815637065637,100.30777494083944,77.82518059534188,50200.0
121.39092664092665,100.40521858263791,77.55243492340266,50233.33333333334
121.78183238303522,100.458376942904,77.80379598531593,50266.66666666666
121.37023601942957,100.49375700585378,77.55083136131523,50300.0
121.88728813559322,100.42107658505964,77.87755806654111,50333.33333333334
121.73811311311312,100.3255912162162,77.82886011011011,50366.66666666666
121.40191754254252,100.30582144644644,77.43871996996997,50400.0
121.60185185185185,100.17052990490492,77.63250750750751,50433.33333333333
121.28999311811813,100.1301614114114,77.32385510510511,50466.66666666667
121.66556811048336,100.05461393596987,77.65684243565599,50500.0
121.34943372647035,100.02885261266891,77.34748105912676,50533.33333333333
121.33498398812776,100.03249238459736,77.37450597516205,50566.66666666667
121.40895503798728,99.873598829244,77.56644663096276,50600.0
121.13712791132143,99.88482376385599,77.28962199526715,50633.33333333334
121.55869718034836,99.83007107709128,77.60479575099586,50666.66666666666
121.28032965324213,99.92831596952264,77.43966723682166,50700.0
121.49067019126109,99.84604260612659,77.71732234489194,50733.33333333334
121.499393562432,99.83837661327944,77.7472865806251,50766.66666666666
121.25862229824293,99.96547970766599,77.46471777328566,50800.0
121.06798875606216,99.70274611559016,77.60726531368735,50833.33333333334
121.36022807154572,99.99834413809263,77.3819261110677,50866.66666666666
121.34651624101166,99.94058393255642,77.70419042896107,50900.0
121.22312865861252,99.9900983933242,77.4349389712293,50933.33333333333
121.00431348818451,99.848376235473,77.33297646200873,50966.66666666667
121.16506038983104,99.86116516850464,77.72857010471691,51000.0
120.97715689000094,99.96350353689805,77.4375714329843,51033.33333333333
121.38030070288136,99.95396359912488,77.77822774596969,51066.66666666667
121.32503498678278,100.33033742808271,77.53492458404605,51100.0
121.62979318923963,100.27443632405537,77.83986938267766,51133.33333333334
121.64098895972631,100.28875758046959,77.85302441299955,51166.66666666666
121.15504897098934,100.26890652120012,77.50511405901315,51200.0
121.7120049988284,100.43450753729591,77.91339529797703,51233.33333333334
121.47106204322813,100.53385165604105,77.61388586533977,51266.66666666666
121.39064997129515,100.22720290462229,77.68418439386181,51300.0
121.16042141848595,100.31600179987278,77.44144982854661,51333.33333333334
121.14735682477621,100.32813542490965,77.45791245791246,51366.66666666666
121.44891819428858,100.2251527621898,77.70622895622897,51400.0
121.11474188893543,100.19081754565626,77.40779531102113,51433.33333333333
121.52612405031759,100.17804209739693,77.81580831984057,51466.66666666667
121.1536150205505,100.06023477394443,77.31931124673059,51500.0
121.60434273217214,100.01915176130592,77.63474185737718,51533.33333333333
121.6238850269468,100.01758962743106,77.66306334452862,51566.66666666667
121.28885417480278,99.8927438881512,77.20879481371553,51600.0
121.3617978577656,99.69782974218458,77.54524224685514,51633.33333333334
121.29433726470356,99.84876981957352,77.32151839412637,51666.66666666666
121.55077716160272,99.73813949855499,77.63616339920331,51700.0
120.89930022188088,99.59668885475338,77.22890968052259,51733.33333333334
121.3019448566742,99.79648519878151,77.35393267202998,51766.66666666666
121.30014634450116,99.68381803462448,77.55204570930377,51800.0
121.1558257566322,99.72787707061899,77.30140739818158,51833.33333333334
121.39017934985675,99.675208618757,77.61891269149334,51866.66666666666
121.18445634574668,99.74008282476022,77.29541350105866,51900.0
121.2539437585734,99.61633308392568,77.38840566155382,51933.33333333333
121.0288868957412,99.57483066835744,77.47507190795783,51966.66666666667
120.7187519241426,99.67688258112184,77.17623606920755,52000.0
121.15026443571584,99.61242383942104,77.59618655862431,52033.33333333333
120.92521128511059,99.74353716132241,77.15204760129257,52066.66666666667
121.135517648521,99.71676920208799,77.44750497141436,52100.0
121.15287130564907,99.95482603815935,77.33528183065219,52133.33333333334
121.15447686743984,99.9587853847113,77.36530427734131,52166.66666666666
121.13466118207405,99.92786008103177,77.59935669439892,52200.0
120.790422387784,99.9695985468875,77.28428052459823,52233.33333333334
121.08640169940271,99.93020749953821,77.58513946185579,52266.66666666666
120.94740667429562,100.00463922308478,77.30864751183003,52300.0
121.14067791392156,100.06520534449848,77.73396034726925,52333.33333333334
121.17769841758512,100.07745828458836,77.7783541653839,52366.66666666666
120.95492888368942,100.22098392956093,77.48402191983251,52400.0
121.16603779420409,100.20881143104569,77.61230012680544,52433.33333333333
121.18923489891232,100.24894102313458,77.43538301602818,52466.66666666667
121.27334302415493,99.95209228961123,77.81388983391581,52500.0
120.9245513236339,99.95273839310538,77.32093102276589,52533.33333333333
120.92035029190994,99.94808945726378,77.31084545763444,52566.66666666667
121.34904227622118,99.956964418547,77.68816637738657,52600.0
120.95252059768193,99.79881766978542,77.21255566416858,52633.33333333334
121.34577237788248,99.88339945450035,77.61983944954129,52666.66666666666
121.15732705182249,99.93218447805604,77.40824138358542,52700.0
121.39410798413091,99.83819427225392,77.67538122985371,52733.33333333334
121.4018255640962,99.83534279692536,77.69999070171089,52766.66666666666
121.24587433055174,99.9070556731847,77.33405467679661,52800.0
121.43663594470046,99.78247602441151,77.62152821023787,52833.33333333334
121.25113650516876,99.86282538298668,77.34252397558848,52866.66666666666
121.65826759353277,99.91127079590721,77.57447473248456,52900.0
121.24898804334288,99.92413438784406,77.28951301531946,52933.33333333333
121.20917922530823,99.87616764229666,77.22415618383359,52966.66666666667
121.74396271271273,99.91200575575577,77.71351038538539,53000.0
121.35881193693692,100.06382945445444,77.33763450950951,53033.33333333333
121.28551257583516,99.87937749228071,77.68561187916028,53066.66666666667
121.14726372790888,99.9369423885553,77.41445173703241,53100.0
121.33569178730473,99.93818368011915,77.65999472451084,53133.33333333334
121.35406290245001,99.95006904684324,77.64944374621794,53166.66666666666
121.154509767413,100.0938571583733,77.37975763782217,53200.0
121.37750779686264,100.06223525578363,77.64424583779423,53233.33333333334
121.36899053431313,100.25194607049444,77.51276622244363,53266.66666666666
121.6207186449122,100.23564578403288,77.7497197658488,53300.0
121.59642271342652,100.48340232757948,77.59989065062875,53333.33333333334
121.36385290820776,100.35298605056671,77.48029019803212,53366.66666666666
121.75179254862141,100.55476060298366,77.76757010075762,53400.0
121.22532545113192,100.39991310959054,77.48986019953762,53433.33333333333
121.78657055673183,100.38228608793123,77.92782413750156,53466.66666666667
121.15930425607846,100.352619901007,77.43730701795218,53500.0
121.36959456314295,100.17649614423807,77.70899470899471,53533.33333333333
121.41103818523176,100.15137550621422,77.72066284969513,53566.66666666667
121.1016772952257,100.1726791726792,77.34160343837763,53600.0
121.54130340017436,100.04105430315107,77.56216527587495,53633.33333333334
121.22793934487484,100.02131336405529,77.30553306762984,53666.66666666666
121.26298313395088,99.77596238886562,77.50221105059815,53700.0
121.17187694607048,99.9169572798605,77.30375825133889,53733.33333333334
121.16717523975588,99.89864864864865,77.30354029144353,53766.66666666666
121.23750562460242,99.68559636301573,77.6226628807274,53800.0
120.98446833930706,99.74458874458875,77.29795652376299,53833.33333333334
121.26707939611168,99.6579000449968,77.52109419851355,53866.66666666666
121.18461203138622,99.81520114584629,77.23773197160294,53900.0
121.3786404754147,99.63051404986885,77.73360331424848,53933.33333333333
121.59032880807074,99.71624735334412,77.78386162660355,53966.66666666667
121.13471478390831,99.78962199526717,77.26251712542035,54000.0
121.21668295861843,99.62039752362335,77.57616099551582,54033.33333333333
120.98662508339928,99.72840540582476,77.26462784527301,54066.66666666667
121.38941649022293,99.81188504172373,77.60812367667207,54100.0
121.18800597832858,99.89376011956655,77.30427201394944,54133.33333333334
121.00103958168476,99.80904280904282,77.26226939130166,54166.66666666666
121.29040016136793,99.80344148086084,77.56844947167528,54200.0
121.27953356582388,100.01184767717024,77.31963818657367,54233.33333333334
121.35632825955408,99.94906049744759,77.72820369594564,54266.66666666666
121.22102194787381,100.03405973313382,77.34318493577753,54300.0
121.37764995635366,100.07497817683004,77.54238371368002,54333.33333333334
121.38959034792369,100.0779087167976,77.54871243297171,54366.66666666666
121.24250218231701,100.12782142411771,77.33790061104877,54400.0
121.43406661695252,100.04315809097687,77.79871986080039,54433.33333333333
121.05222218785762,100.22356416045528,77.47132960133611,54466.66666666667
121.37234340044742,100.13411943823016,77.70180835197613,54500.0
120.97370865849129,100.11399108138241,77.40982286634461,54533.33333333333
121.03283023536328,100.21428571428572,77.42674666749144,54566.66666666667
121.13122445187663,99.96719001610306,77.53138548247244,54600.0
120.93620711012016,99.88024897807509,77.23824786324786,54633.33333333334
121.06846897064287,99.68555679425243,77.39697138610181,54666.66666666666
120.70602469059692,99.64249495245285,77.10411047577949,54700.0
120.93789483463397,99.49461166852473,77.39551591725505,54733.33333333334
120.8621056362992,99.48627529553195,77.42656782207975,54766.66666666666
120.6503313514183,99.49973677691072,77.1009692803171,54800.0
120.78530585823714,99.379406007737,77.3387327959558,54833.33333333334
120.63447603121516,99.46858355010531,77.05060076799208,54866.66666666666
121.05241236219496,99.33012820512822,77.5358602749907,54900.0
120.8570873726075,99.42065933383049,77.20901690280884,54933.33333333333
120.86316181953764,99.41576559781255,77.19560961968679,54966.66666666667
121.09865150385285,99.35051578424059,77.48797539149886,55000.0
120.91977380064628,99.43207805120556,77.24412751677852,55033.33333333333
121.13115212527964,99.37857320407656,77.47093276162067,55066.66666666667
121.03878289063476,99.60202331961592,77.2035789998753,55100.0
121.29687305150269,99.56165045516899,77.57076942262128,55133.33333333334
121.28663174959473,99.57154882154884,77.58160306771418,55166.66666666666
121.08030926549446,99.66103940640978,77.25417757825166,55200.0
121.3164671405412,99.64230265619156,77.47929916448436,55233.33333333334
121.15123456790123,99.76083364509293,77.25333582740991,55266.66666666666
121.28943758573385,99.81077752837014,77.42274597830153,55300.0
121.21632996632998,99.82173587729143,77.2719322858212,55333.33333333334
121.19581618655693,99.82641227085672,77.25539344057863,55366.66666666666
121.65057987280213,99.83311510163362,77.74621212121212,55400.0
121.269126449682,99.97703890759449,77.36829716922308,55433.33333333333
121.45071081182192,99.97018019703206,77.69963524130192,55466.66666666667
121.2465706447188,100.09934218730517,77.40500685871056,55500.0
121.3705720802495,100.00152058216575,77.759732501668,55533.33333333333
121.39429626526402,100.00463932721998,77.79580753774303,55566.66666666667
121.13236822914244,100.06830206830207,77.41415693028597,55600.0
121.3294698133408,99.86989712796164,77.62509891542149,55633.33333333334
121.05438408664213,99.81420968517745,77.30768514639483,55666.66666666666
121.22347902993064,99.6318949867337,77.58706884513337,55700.0
120.91406418929355,99.66530750934422,77.31449047045378,55733.33333333334
120.95100001551614,99.6199010069978,77.22203602848765,55766.66666666666
121.1565578984934,99.44267560396592,77.44601157504384,55800.0
120.93189964157708,99.49951124144673,77.23044577883289,55833.33333333334
121.29224658256918,99.38251951155178,77.62235255783644,55866.66666666666
120.90288445127155,99.3493770267964,77.18180266567364,55900.0
121.1204673462738,99.2682431069528,77.52297165200392,55933.33333333333
121.1529736691027,99.26369687660014,77.54868190352062,55966.66666666667
120.92532079628856,99.36278297568623,77.16774503871278,56000.0
121.26451240803092,99.3291869310388,77.40045516897368,56033.33333333333
120.32638677926971,99.2034145452336,77.10623367154749,56066.66666666667
120.67611944832615,99.20260951455131,77.38974117504102,56100.0
120.351919922231,99.21959110517042,77.0433653320372,56133.33333333334
120.34578346193571,99.23019320736375,76.98980800777692,56166.66666666666
120.70972334920464,99.20169328046295,77.22788860480426,56200.0
120.75210763990569,99.45548140499052,77.06041644190313,56233.33333333334
120.85026894564062,99.51275372593746,77.25296302575406,56266.66666666666
121.13325264938169,99.75999627612532,77.25140809011778,56300.0
121.17240263243069,99.57540495969671,77.65149576930783,56333.33333333334
121.17511520737328,99.58946102985372,77.66336328468171,56366.66666666666
120.96407694924692,99.82544149939692,77.27134815822845,56400.0
121.19008443386015,99.79169888349364,77.60664027464202,56433.33333333332
121.19899455383327,99.98476314605348,77.39763223634192,56466.66666666668
121.3164259425355,99.8894627779668,77.70004329941547,56500.0
121.2895622895623,100.10533910533913,77.47347515089452,56533.33333333332
121.13444468499675,100.02517551727337,77.43225187888534,56566.66666666668
121.65924678887644,100.10261566280089,77.72580745728895,56600.0
121.34389982777081,100.20864559574238,77.48576393737684,56633.33333333334
121.55642445965029,100.15208924886343,77.77565206597465,56666.66666666666
121.29752207171565,100.18762121987929,77.42748529845305,56700.0
121.42778010519949,99.99011621592268,77.61245325761455,56733.33333333334
121.45591087526572,99.97287777932941,77.65735697993763,56766.66666666666
121.11180613474191,99.98191394062955,77.39017082136348,56800.0
121.39573201147276,99.6215706447188,77.49633682504053,56833.33333333334
121.01177603778272,99.56149018145662,77.17584824757644,56866.66666666666
121.44280770669658,99.51459034792369,77.50651577503429,56900.0
121.20850480109743,99.57667726649208,77.2372334455668,56933.33333333332
121.20365693976808,99.57544581618656,77.20170844244919,56966.66666666668
121.31077285915994,99.49082220049965,77.42286148737763,57000.0
121.08183214634829,99.54914738785708,77.22386693354436,57033.33333333332
121.21534857018729,99.53802231221589,77.4099055066797,57066.66666666668
121.07435336467596,99.55417461869075,77.22130676969387,57100.0
