B,G,R,Time[ms]
91.72989221556887,88.09291017964073,66.70941317365269,0.0
91.41551459293396,88.27035330261137,66.37363191244239,33.333333333333336
91.66216666666666,88.37645238095241,66.7862619047619,66.66666666666667
91.42431137724552,88.02467065868264,66.44586826347306,100.0
90.44514384066879,87.40663880009835,65.11654782394885,133.33333333333334
91.17878744239631,88.07003648233488,66.49505568356375,166.66666666666666
90.97628609676802,88.17106521323389,66.2196882769172,200.0
91.30700045691748,87.81112473847486,66.35964216146021,233.33333333333331
91.26607142857144,88.44883333333334,66.53454761904761,266.6666666666667
91.03305389221558,88.11825149700597,66.1602874251497,300.0
91.086599883856,87.56325009678669,66.0729045683314,333.3333333333333
90.61304644808745,87.66669106167058,65.40056596409056,366.6666666666666
91.12198706643153,87.66994904957869,65.85670194003528,400.0
90.55515415450093,87.21341614292076,65.11293116246843,433.33333333333337
90.50067489876518,86.90313952907063,65.01707243913413,466.66666666666674
90.53806928960657,86.90571414287857,65.07856321551769,500.0
90.10004480732849,86.95063725978294,64.75587473862393,533.3333333333334
90.32741129311623,86.88677191072401,65.27250457762162,566.6666666666666
89.83051181587444,86.98607722825953,64.80079347477884,600.0
90.08835462058605,86.832782369146,64.79959929877286,633.3333333333333
89.90640246938166,86.94710245942447,64.65540675097083,666.6666666666666
89.99773474061537,87.0964353280892,64.79363735935478,700.0
90.32220457045094,87.0839300989857,65.52924355370891,733.3333333333333
90.22644506904558,87.2239032139802,65.1773432726384,766.6666666666667
90.38504839028244,86.9277108433735,65.42598261900059,800.0
90.11074878024496,86.80342029274121,64.99417504729662,833.3333333333335
90.50407826322665,87.0198861536187,65.59646139819128,866.6666666666667
90.59217630313145,87.09185726906843,65.74170511436144,900.0
90.13063973063974,86.61351789499938,64.98703080184562,933.3333333333336
90.23553719008264,86.56749311294766,65.21039318807914,966.6666666666664
89.72913727071156,86.34703184841766,64.60801753678696,1000.0
90.16655350182322,86.54055073557149,64.95136426505721,1033.3333333333335
90.04806910569107,86.6080792682927,64.67771849593495,1066.6666666666667
89.9083588957055,86.41377811860941,64.43484151329244,1100.0
90.450572111153,86.56190116937005,65.45834276373695,1133.3333333333333
89.99423868312758,86.6399301658561,65.02476618032172,1166.6666666666667
90.06808080808081,86.50477272727272,65.0039898989899,1200.0
89.81959009178927,86.63427637369546,64.72093549603923,1233.3333333333335
90.34932036413521,86.74318493577753,65.37872552687368,1266.6666666666665
90.23994038748137,86.68370591157476,65.34202682563338,1300.0
89.8727521112767,86.48889716840536,64.99371584699453,1333.3333333333333
90.21333935561579,86.41699287363244,65.14887584061026,1366.6666666666667
90.23299729530365,86.70405704450455,65.36289648389476,1400.0
90.64789596368544,86.82070911544595,65.90624463256043,1433.333333333333
90.16964769647696,86.83252032520325,65.16191180093621,1466.6666666666665
90.14542990884456,86.84954422271495,65.15011086474503,1500.0
90.31924917188076,86.69932523616734,65.18903202061097,1533.3333333333335
90.19214820267452,86.66889952153109,64.74712305238621,1566.666666666667
90.46269249875809,86.36204669647293,64.95861897665175,1600.0
90.43688333581238,86.60645049333134,64.86365213942189,1633.333333333333
90.18769446953728,86.1047626217003,64.55078791528656,1666.666666666667
90.33803668615198,86.20583047772627,64.61151985486796,1700.0
89.8929005161421,86.20653273960127,64.04020342070639,1733.3333333333335
90.1009400406504,86.10200711382114,64.4904725609756,1766.6666666666665
89.51172051089407,86.18765339343851,64.2443526170799,1800.0
89.74567993989481,86.11432506887053,64.6389431505134,1833.333333333333
89.5835656676292,86.2966991934681,64.61074878024495,1866.666666666667
89.73633954906765,86.35047242913562,64.63870419437085,1900.0
89.91623737373737,86.21353535353535,64.77618686868686,1933.333333333333
89.33531179564238,86.03052842474331,64.36533934385174,1966.6666666666665
89.54707417444546,85.9074074074074,64.92336645588678,2000.0
89.38147550896997,86.00607236444266,64.55014110058454,2033.333333333333
89.40843621399178,85.92213690655426,64.58069858476361,2066.666666666667
89.57109365257514,86.11909215612921,64.84594089038534,2100.0
89.08076769292282,86.03058776489405,64.297031187525,2133.333333333333
89.37749900039984,86.0767692922831,64.6046831267493,2166.6666666666665
88.77499494029549,85.75910746812387,63.85663327261688,2200.0
89.51336010311323,86.00381717231804,64.88672417211977,2233.333333333333
88.92799424945468,85.90085266706328,64.24006047987311,2266.6666666666665
88.82784967645594,85.82705326032851,64.04390243902441,2300.0
89.1566699850672,85.78449477351916,64.40487804878049,2333.333333333333
88.94554852955939,85.60692060624311,63.88254039947808,2366.6666666666665
89.28911335578003,85.85781269484974,64.42374360892879,2400.0
89.00842449390167,85.94882434301522,63.95073557148246,2433.333333333333
89.58326695210594,85.89452852733247,64.65518271432839,2466.666666666667
89.56305386836603,85.93724484715723,64.68156925221547,2500.0
89.13367519665438,86.04632579906401,63.95402270237977,2533.333333333333
89.40867568635197,86.04330436500099,64.34678056488248,2566.666666666667
89.0586608730002,85.99284021331226,63.81678352755284,2600.0
89.25955854844744,85.75505674024194,63.84928295298666,2633.333333333333
89.11189581768095,85.85687453042827,63.63190583521162,2666.6666666666665
89.0901076884548,85.83929376408716,63.61582769847233,2700.0
89.41179564237416,85.65810167793639,64.05529676934636,2733.333333333333
88.97092411720513,85.84956173303281,63.63831705484597,2766.666666666666
89.21738807080173,85.96035995835193,64.17524418662303,2800.0
88.79094650205762,85.73530365382217,63.559720663424365,2833.333333333333
88.97719821162443,85.49540486835568,63.86137605563835,2866.666666666666
89.04322564487855,85.4915852742299,63.803856749311294,2900.0
88.75438333956853,85.67135553061479,63.59541089911461,2933.333333333333
89.1855747558227,85.61272226396194,64.19599298772853,2966.666666666667
88.73773933909914,85.59836024596311,63.808853671949215,3000.0
89.25894092076666,85.97885793321478,64.95173878680103,3033.333333333333
88.885803666699,86.17996410903095,64.85633912115628,3066.666666666667
88.55197922790516,85.7444885361552,64.37742504409171,3100.0
89.2533637179083,86.05878930398312,65.10632985042062,3133.333333333333
88.78988522238164,86.09218077474894,64.69751315160211,3166.666666666666
88.65929235599566,85.54063518898684,64.37920540997465,3200.0
88.10797953719641,85.52751482118953,63.6910260087971,3233.333333333333
87.45318234498743,84.50511879466872,63.0643954027429,3266.666666666666
87.47438188139849,84.50837840448136,63.05633088661386,3300.0
86.57534978624174,83.8899387874077,62.25337640886124,3333.333333333333
86.49465879713185,83.53585190966294,62.45505097312326,3366.666666666666
85.70871833084948,83.04932935916544,61.47414307004471,3400.0
85.44117720414016,82.45579249282953,61.17770295548074,3433.333333333333
85.0046080641122,82.51750563486101,60.49411470072627,3466.666666666667
85.01745554720762,82.49494114700727,60.524643125469574,3500.0
84.78300386275845,81.88088565730008,60.41528440505945,3533.333333333333
84.94298180375823,82.46430165104864,60.76463880212207,3566.666666666667
85.27977483705314,82.32843669761012,61.607915267627895,3600.0
84.69496609921467,82.43771035559244,61.173820789229794,3633.333333333334
85.16594370541739,82.68141507615192,62.061596298438396,3666.666666666666
85.64983775529679,83.22012788700133,62.62774384424508,3700.0
84.808977592395,82.61873120574256,61.56605878358716,3733.333333333334
85.16638374236105,82.5366912406635,61.98222427005528,3766.666666666666
85.03596184035743,82.60171476874773,61.80804250694361,3800.0
85.32069065864779,82.44844310796394,62.05989911727618,3833.333333333334
85.14717413008013,82.47687924611002,61.62310370857379,3866.666666666666
85.17690097964595,82.42475877139137,61.53148861990228,3900.0
84.87482296817154,81.8164086764231,61.074142172087356,3933.333333333333
84.82409856946893,82.2681020968058,61.14236723495983,3966.666666666667
84.48867094178297,81.38425751288823,60.67212372689552,4000.0
84.23052935998994,81.33708034703884,60.408399346158674,4033.333333333333
84.67743551214626,81.50353117956423,61.13395942900075,4066.666666666666
84.92055105668577,81.87267924155641,61.577177562709856,4100.0
84.52262160675899,81.7499375093736,60.67449882517622,4133.333333333334
84.74225786863678,81.54700941200284,60.95099180244914,4166.666666666667
84.4062688973997,81.6704293489216,60.55941342471275,4200.0
85.1969138875062,82.17264808362368,61.33170731707318,4233.333333333333
85.16545545047286,82.45149328023892,61.09420109507217,4266.666666666667
85.13169732107156,82.36075569772092,60.89246801279489,4300.0
85.9850471932439,82.90566318926976,61.98055141579732,4333.333333333333
86.352360260715,83.36349496346041,62.1344064783725,4366.666666666666
86.6670782100383,83.00267083249346,62.06450312437008,4400.0
87.22353639827782,84.10424605334785,62.5681694462315,4433.333333333334
87.86465086356213,84.59128024941852,63.39704062948483,4466.666666666667
87.91104567724054,84.63554708764289,63.393155837086155,4500.0
87.884662210848,85.04586677267869,63.41754664943971,4533.333333333333
88.28863602558383,85.05421686746988,63.892508304824226,4566.666666666666
88.22694054908158,85.35011356903024,63.76177661465535,4600.0
88.5472752213493,85.19605935902233,64.09395186432224,4633.333333333334
88.64807377658785,85.54291239030195,64.20040656452973,4666.666666666667
88.62824136050375,85.58307303287224,64.172641182012,4700.0
89.02118309302786,85.6208028836658,64.57070906577128,4733.333333333333
89.0001975113569,85.84433636184082,64.35115050365397,4766.666666666667
89.22730953257269,85.83256042203409,64.6783952889216,4800.0
89.25530303030304,86.09987781036169,64.70134408602149,4833.333333333333
89.22716500444356,85.66085711464402,64.39073763207267,4866.666666666666
89.49397619984266,85.90275865460268,64.75860542879623,4900.0
88.92722747635639,85.49517172722747,63.76082628173221,4933.333333333334
89.04895470383273,85.39171229467397,63.922299651567926,4966.666666666667
88.593712514994,85.12689924030389,63.277563974410235,5000.0
88.66698384875423,85.02063352948541,63.626167522223604,5033.333333333333
88.09049705771879,85.02368849380242,63.20565919619381,5066.666666666666
88.12958557656191,85.01534994365846,63.214097909102286,5100.0
88.74225511408339,85.20448957513769,64.48721479150275,5133.333333333334
87.82297243704143,84.51489688677374,63.34704045211186,5166.666666666667
87.7260162601626,84.25920177383594,63.65161369795516,5200.0
87.41768674698795,84.47946987951806,63.82460240963855,5233.333333333333
87.2133664320833,83.99925286802275,64.08324496288441,5266.666666666667
87.15424660175455,83.98486455220285,64.10818953051191,5300.0
85.79160580387573,82.99851494790144,62.47541143246664,5333.333333333333
85.43634060049723,82.78965863453816,62.41566265060241,5366.666666666666
84.46061717224629,82.53562074384494,61.530882422972525,5400.0
84.267361360642,82.14257994969458,61.33948975925261,5433.333333333334
83.88104195437877,82.05755035954094,61.1141721034335,5466.666666666667
83.85577884661174,82.01373874946425,61.11319586646983,5500.0
83.76446023136371,81.43411894590312,60.80936494983919,5533.333333333332
83.16648192771083,81.14754216867469,60.06255421686747,5566.666666666666
83.20778389147141,81.21852765392278,60.78270562565222,5600.0
82.96035525501216,80.99799990475735,60.40368588980428,5633.333333333334
82.93719760933496,80.9015510862347,60.57885874205483,5666.666666666668
83.04755241438194,80.90138506783038,60.6323878189925,5700.0
82.906435264869,80.98553738764582,60.36323866896157,5733.333333333332
83.30546022579347,81.27767390120944,60.942746917232725,5766.666666666668
83.06877943717308,81.29897517218527,60.71624340252301,5800.0
82.75207496653279,80.3456005841548,60.10943166605817,5833.333333333332
82.4756598240469,80.35068426197458,59.69692082111437,5866.666666666666
82.43624144672529,80.38697458455523,59.676075268817215,5900.0
83.23703614457831,80.9491325301205,60.59363855421688,5933.333333333334
82.9033483330914,80.82822857695844,60.05765229593072,5966.666666666668
83.19572215989464,80.40193161309205,59.979879030291215,6000.0
82.93444198078345,80.31303276669131,59.185981768908604,6033.333333333332
83.68550565899963,80.87869051965438,60.489351344773034,6066.666666666666
83.7100158208592,80.93442862358525,60.49356212729707,6100.0
83.2217151269783,80.68791559317877,59.88006379585328,6133.333333333334
83.29853261947255,80.35105591909577,59.74511699385286,6166.666666666668
83.75965477950982,81.26761860893599,60.35227520667168,6200.0
84.16259788116076,81.29726781255303,60.8178622512061,6233.333333333332
83.82005755816789,81.25115848007414,60.551973074484174,6266.666666666668
83.82959367835716,81.26610897029413,60.56019218574704,6300.0
83.75416202844775,80.74171923314779,60.37333333333334,6333.333333333332
83.48709956709958,81.00126159554732,59.77986394557824,6366.666666666666
83.96346390736635,81.27105198324709,60.47472283813747,6400.0
83.9825644039573,81.64418650210598,60.41145068077186,6433.333333333334
84.4571701439906,81.84366735233617,61.09506317954746,6466.666666666668
84.31795474581251,81.76665197374865,60.93493486139681,6500.0
84.32549631725281,82.20167308911759,60.84066630896054,6533.333333333332
85.11529696969697,82.43151515151516,61.57517575757576,6566.666666666666
85.13646060606061,82.5918787878788,61.38654545454546,6600.0
85.86699177663033,83.1263386880857,62.35343755976286,6633.333333333334
85.22349090909091,82.55008484848486,61.55561212121213,6666.666666666668
84.8725073313783,82.22900782013686,61.0994623655914,6700.0
86.24122474148564,83.64571672516841,63.260388008727816,6733.333333333332
86.06233527861447,83.88191829819277,63.184629141566276,6766.666666666668
86.31495027729967,83.54802543507363,63.184165232358005,6800.0
86.01523882089623,83.93990190009049,62.943521120053326,6833.333333333332
86.39668282482654,83.94437315844502,63.51537401387701,6866.666666666666
86.41749833666002,83.98552894211576,63.544743845642046,6900.0
85.80805148304059,83.30381768036,62.57729714036871,6933.333333333334
86.31289839675487,83.4734402163415,62.899314274676456,6966.666666666668
85.86668942978393,83.3077410858007,61.90622408662993,7000.0
86.72568234610918,83.78670634920636,62.89709156020132,7033.333333333332
86.19392362815353,83.46277117895356,62.03752331402768,7066.666666666666
86.45091725214675,83.72684914129586,62.325014637002354,7100.0
87.4707268966181,84.51029489584838,63.54774618752105,7133.333333333334
86.86621818092213,83.83659840812203,62.39663882112319,7166.666666666668
88.06019539867634,84.71058692331934,63.787897888433655,7200.0
88.31569307885097,85.3522508193561,63.81870541738963,7233.333333333332
89.36888166985867,85.65979781328032,64.59007491090694,7266.666666666668
89.44808358990521,85.67436786346336,64.71693859245072,7300.0
88.88998617420502,85.2870086904997,63.29606952399763,7333.333333333332
89.54275639141933,85.85693995494172,64.37131452639828,7366.666666666666
89.59534368070953,86.05865976841585,64.14291697462428,7400.0
90.07705925743791,86.2049668059995,64.72026063437423,7433.333333333334
89.81152508693494,86.14098360655737,64.11587183308495,7466.666666666668
89.8521609538003,86.12717337307501,64.12675111773473,7500.0
90.48627740822864,86.46314363143631,64.99307711258929,7533.333333333332
90.1853555967842,86.63544836116264,64.51327149041435,7566.666666666666
90.88314232539915,87.09104711529044,65.43544911352728,7600.0
90.67940630797771,87.09325912183056,65.17625231910947,7633.333333333334
91.34042448779293,87.41511470985155,66.08340080971661,7666.666666666668
91.41061837891108,87.4569844789357,66.08563685636857,7700.0
90.91435925629749,87.26936725309878,65.20091963214715,7733.333333333332
91.49309287204024,87.8606305974727,66.22068457857932,7766.666666666668
91.4949413489736,88.03785434995113,66.10276148582601,7800.0
91.62832405689552,87.74946196660483,66.0413605442177,7833.333333333332
91.44311688311687,87.84897959183674,65.60915275200989,7866.666666666666
91.52269031781229,87.99997536338999,65.77334318797732,7900.0
92.01170238975115,88.10174919931019,66.1842079329884,7933.333333333334
91.63273349196908,88.15263731905611,65.54394705532421,7966.666666666668
92.08531627999209,88.17378048780488,66.23101328574262,8000.0
91.96230055658629,88.2871243042672,66.04405689548547,8033.333333333332
92.27820741622051,88.22407297243704,66.28921277017648,8066.666666666666
92.37216063069721,88.33077112589308,66.4789849716679,8100.0
92.45204418232709,88.38522091163534,65.96184026389443,8133.333333333332
92.74281181836209,88.3760162601626,66.60601328574262,8166.666666666666
92.489898989899,88.69147573293915,66.65028332101502,8200.0
92.57598021026593,88.55985157699443,66.91431045145332,8233.333333333332
92.21590599876316,88.36648113790972,66.41417439703153,8266.666666666668
92.17181693477993,88.29834143908218,66.24187554557925,8300.0
92.9087003752716,88.73182895516493,67.35198992692081,8333.333333333334
92.55185640521269,88.80346692894025,67.08554216867469,8366.666666666668
92.88181531673496,89.14676719435623,67.81083177774008,8400.0
92.45930661421194,88.82950577821491,67.07373985738873,8433.333333333334
92.84522706209455,88.86834788546898,67.83044729525389,8466.666666666666
92.86910394614895,88.92451587727426,67.87568899078093,8500.0
92.4502024291498,88.68489755858177,67.34754017911914,8533.333333333334
92.5950234047795,88.51369795516138,67.51473269278148,8566.666666666666
92.32722284574136,88.48741738371369,67.02319491208381,8600.0
92.64756587324908,88.65927123126653,67.69206092663336,8633.333333333332
92.47971477747728,88.75099582001475,67.1467174821736,8666.666666666666
92.52416955270478,88.87890834593435,67.31566752841324,8700.0
92.91127262084775,88.95844105165602,67.57667918638116,8733.333333333332
92.86238554216871,89.46260240963854,67.4744578313253,8766.666666666668
93.24384390150242,89.56151298420772,67.93411894590314,8800.0
92.94823117169874,89.52013632218114,67.62098593577497,8833.333333333334
92.91905454545456,89.12324848484846,67.51466666666667,8866.666666666668
92.98460606060608,89.12402424242424,67.52378181818182,8900.0
92.67603748326641,89.00017037848362,66.92461969088475,8933.333333333334
93.22843179948714,89.02063676392315,67.71989161465136,8966.666666666666
93.07828081612942,89.36479536399855,67.55593384039601,9000.0
92.88125610948192,88.69855816226784,67.20850439882697,9033.333333333334
92.62327358213341,88.53548339700266,66.87905279655207,9066.666666666666
92.61526594181605,88.55529434812418,66.90131256734254,9100.0
92.75796416127426,88.17010950721752,66.76660029865603,9133.333333333332
92.45460428073669,88.0301393728223,66.27078148332504,9166.666666666666
92.76927643784788,88.22023500309216,66.9461224489796,9200.0
92.2990970933828,88.35223252937539,66.35290043290044,9233.333333333332
92.59201545719161,88.04100170631338,66.34560373381511,9266.666666666668
92.5629077587072,88.08024691358023,66.36015758305732,9300.0
92.32441007336901,88.24866151100534,66.19673309537974,9333.333333333334
92.58491603358657,88.12290083966414,66.57264594162335,9366.666666666668
92.35653679653679,88.31945578231294,66.43532467532468,9400.0
93.08977610848251,88.7477440124872,67.46097751329204,9433.333333333334
92.38782951465878,88.2229366839123,66.41293422025129,9466.666666666666
92.27799628942486,88.09311069882497,66.1991341991342,9500.0
92.69650349650352,88.37362286835972,66.85295055821372,9533.333333333334
92.40460704607048,88.28920916481894,66.41507760532151,9566.666666666666
92.5285197655568,88.09332834518021,66.23464272353162,9600.0
92.335609152752,88.19552257266544,66.02199134199135,9633.333333333332
92.28347385325705,87.76141724380207,65.98707718558667,9666.666666666666
92.2955435109907,87.75356318377999,65.98042758205361,9700.0
92.3050505050505,88.18750923872875,66.2540280857354,9733.333333333332
92.47019374068554,88.08601589667164,66.3687779433681,9766.666666666668
92.16358024691358,88.01871926126671,65.7717053096457,9800.0
92.43728266269251,88.04110779930453,66.37881271733731,9833.333333333334
92.22865226337449,87.90805041152264,65.52759773662551,9866.666666666668
92.07310076328058,87.81015316838275,65.49280262281646,9900.0
92.32198649465832,87.98405059463819,66.21475005039306,9933.333333333334
91.80355357856855,87.96771291483407,65.88869452219113,9966.666666666666
92.36766658470616,88.38647651831816,66.84777477255962,10000.0
92.04843537414965,88.1726159554731,66.49387755102042,10033.333333333334
92.29793840039741,87.99138102334824,66.83907103825136,10066.666666666666
92.26544456914827,87.90861703454296,66.77687991021325,10100.0
92.0792431998394,88.0231356017264,66.14162400883268,10133.333333333332
92.42093162734908,88.01744302279089,66.68112754898041,10166.666666666666
92.00284324728771,88.1896246414765,65.97870058610799,10200.0
92.12665505226481,88.0780487804878,66.28394723743155,10233.333333333332
91.90652870165066,88.28997289972902,65.96058142399606,10266.666666666668
91.76306266111445,88.08777017648225,65.67571386079715,10300.0
92.0502049180328,87.96358956417433,66.15281387445022,10333.333333333334
91.92808391046871,88.04107698484394,65.90730703603333,10366.666666666668
92.75218282035023,88.46878201063362,67.32191112628652,10400.0
92.5700058297707,88.70477069568598,66.96370967741936,10433.333333333334
92.63470956998728,88.39920658242727,67.01888039964737,10466.666666666666
92.63845626408072,88.44477911646587,67.0015672445881,10500.0
92.28830104321906,88.05072031793344,66.28646299056135,10533.333333333334
92.83678616906653,88.45739053776079,67.20161132334215,10566.666666666666
92.35025817555938,88.4918859109909,66.67890336857634,10600.0
92.38518243661102,88.20069264069265,66.53880024737168,10633.333333333332
91.92454048683555,88.05745156482861,65.98606557377049,10666.666666666666
91.91140089418778,88.06120218579235,65.97739692001987,10700.0
92.12717337307501,88.04369100844511,66.32372081470442,10733.333333333332
91.88890538033395,88.13882498453926,66.04618429189857,10766.666666666668
92.1529725459214,88.06327770096779,66.38275232075844,10800.0
91.85789865871831,87.900173869846,65.94028812717336,10833.333333333334
92.23267240304277,87.8377852600075,66.42780895373488,10866.666666666668
92.29607182940515,87.81957850106,66.4872677391196,10900.0
91.88000496770987,87.9714605067064,66.18050173869845,10933.333333333334
92.24716840536513,87.90546448087431,66.47709885742672,10966.666666666666
91.95555555555555,87.79665793739868,65.94515525626636,11000.0
92.28984791625518,88.10932253604582,66.54720521429982,11033.333333333336
91.99705698964961,88.02326973438083,66.00947749095897,11066.666666666664
91.87510643626348,87.91021788129227,65.90568494866014,11100.0
92.15813674530187,88.03888444622153,66.30615253898439,11133.333333333332
91.79401284753588,87.85355816521128,65.78686138713239,11166.666666666664
91.85180918993365,87.48944534869162,65.97095279829722,11200.0
91.6435425829668,87.73313174730106,65.74312774890043,11233.333333333332
92.07307078886026,88.09922708870077,66.71610845295056,11266.666666666668
91.95294990723562,87.83940630797774,66.46444032158317,11300.0
91.759916235526,88.07859078590786,66.23624045331364,11333.333333333336
92.12112648123356,87.79255292776043,66.32616887302295,11366.666666666668
91.90842879715584,87.70193067351374,66.28416946474421,11400.0
91.91828199348859,87.43949411470074,66.03756574004508,11433.333333333336
91.96637504754659,87.66118929884621,65.84463040446303,11466.666666666664
91.9204006593128,87.68961582350704,65.82928870292886,11500.0
91.79832695021165,87.4083350131022,66.10020661157024,11533.333333333336
91.52929865398241,87.58058394899301,65.58761765003543,11566.666666666664
91.7894961357021,87.51646090534979,65.78942085717154,11600.0
91.64314274290285,87.6517642942823,65.56634846061576,11633.333333333332
91.74106894897623,87.32664293468656,65.54881466333407,11666.666666666664
91.72965740109572,87.3804185917342,65.47971420636722,11700.0
91.8303817590224,87.99843521025309,65.85241300514146,11733.333333333332
92.5070975609756,88.64634146341464,67.00853658536586,11766.666666666668
91.99105035405191,88.24075531077891,66.25208988985051,11800.0
92.33897553403798,88.14977702219922,66.66395643925394,11833.333333333336
92.41708053364496,88.83277339565683,66.88073327490504,11866.666666666668
92.13878229413632,88.56485713587368,66.55141397599785,11900.0
92.48375609756098,88.51,66.85856097560976,11933.333333333336
92.45486746987952,88.69387951807228,66.89166265060241,11966.666666666664
92.33861192570869,88.27453567937441,66.60437438905181,12000.0
92.22794793632364,88.5598054870083,66.88725988290511,12033.333333333336
92.46888158695387,88.48005354752344,67.11271753681392,12066.666666666664
92.50074236339294,88.48942436412315,67.12393817695022,12100.0
92.05904203323557,88.3858504398827,66.49371945259043,12133.333333333332
92.05292781672756,88.06561666831243,66.26928014219413,12166.666666666664
91.63538568312514,88.04739242514376,65.75981558596074,12200.0
91.8499850059976,87.65601259496202,65.83651539384246,12233.333333333332
91.84691651794569,87.95704441800518,66.00555225064447,12266.666666666668
92.03337612323492,88.25970178730127,66.27693295151575,12300.0
92.30819492244,87.93500922739288,66.27554990273829,12333.333333333336
91.86301642608262,87.72451468392235,65.84410154305624,12366.666666666668
92.06854156296663,87.62446490791439,66.20174216027874,12400.0
91.88563962170237,87.67439024390244,66.04333001493279,12433.333333333336
91.84626149540183,87.49847560975607,65.9437225109956,12466.666666666664
91.87497500999599,87.50247401039586,65.98503098760496,12500.0
91.49906969727444,87.457834657548,65.46831942069798,12533.333333333336
91.8228947104286,87.51809194017866,65.90442135902839,12566.666666666664
91.54275543437096,87.29319094145269,65.36441212855664,12600.0
92.22399505256651,87.88470006184292,66.49236858379716,12633.333333333332
91.80727272727272,88.07873840445271,66.1577983920841,12666.666666666664
91.62048282727724,87.84367844698855,65.85689397710303,12700.0
91.7546231507397,87.76002099160334,66.11790283886445,12733.333333333332
91.51465903434544,87.86943753111,65.89494773519164,12766.666666666668
91.88297660527626,87.82926829268294,66.39502239920358,12800.0
91.28567836669014,87.38959569546415,65.63959569546414,12833.333333333336
91.41007960249456,87.109770318917,65.67859859047813,12866.666666666668
91.44460781828323,87.12165999087361,65.67885210160726,12900.0
91.43947421031588,87.4827568972411,65.79620651739305,12933.333333333336
91.72181069958849,87.45771293178701,66.13425614166356,12966.666666666664
91.39365652915787,87.33917996587374,65.66164809796247,13000.0
91.76017103532033,87.27193603886246,65.86792834733326,13033.333333333336
91.23664180434284,87.18791843800119,65.07135402082326,13066.666666666664
91.26240358424765,87.19950105643663,65.07746353384415,13100.0
91.53773132368906,87.34537605089753,65.47489206998411,13133.333333333332
91.34616769547328,87.22626028806586,64.83307613168724,13166.666666666664
91.66670060840569,87.30374462235572,65.42764045515872,13200.0
91.65443951022922,87.55209590060836,65.09685037348872,13233.333333333332
91.81560883151478,87.06152348752626,65.52884073561806,13266.666666666668
91.85144203678092,87.04669330464628,65.56313713436812,13300.0
91.41921452277984,87.34841094237152,65.42771296389421,13333.333333333336
91.81696496476195,87.45081884094714,65.61648836383918,13366.666666666668
91.673040248921,87.67823446752985,65.46055404998495,13400.0
91.89745474826346,87.43056330172895,65.78068752218222,13433.333333333336
91.35696902094006,87.22856563403136,65.22714597170814,13466.666666666664
91.41439161554192,87.2378578732106,65.17901329243354,13500.0
91.70368861848637,87.08227477534811,65.4852226153807,13533.333333333336
91.33029554769242,87.20975994705087,64.94211236412698,13566.666666666664
91.5269454980526,87.24684978234859,65.18028154672504,13600.0
91.16175616652781,87.41079047691181,64.86864096543715,13633.333333333332
91.50403482422422,87.28666344220146,65.01937224753709,13666.666666666664
91.5248580811038,87.2841687243846,65.06901204083191,13700.0
91.237489225777,87.28656898037825,64.69160371140293,13733.333333333332
91.60353394514021,87.1020889317041,65.5468235055519,13766.666666666668
91.1382649698322,87.22777974953102,65.25097601784721,13800.0
91.4939410840136,87.26887390356438,65.64696040156163,13833.333333333336
91.28902242783869,87.40256964698781,65.54387508800161,13866.666666666668
91.3875199920032,87.51496901239504,65.71366453418632,13900.0
91.61266034578918,87.25784616944685,65.84104852203012,13933.333333333336
91.39679128348659,87.53133746501398,65.69527189124351,13966.666666666664
91.80604302994249,87.76202161411858,66.1716240333135,14000.0
91.7820891845282,88.08548903670855,66.07940379403793,14033.333333333336
91.8473174366617,87.77116244411327,65.98740685543964,14066.666666666664
91.86753601589669,87.7985345255837,66.01348733233979,14100.0
91.40941123550579,87.51856757297081,65.32324570171932,14133.333333333332
92.22729736388271,88.05826558265579,66.37028824833703,14166.666666666664
91.44021901443504,87.78611249377798,65.20276256844201,14200.0
91.49414389291692,87.24884652436243,64.9859047812199,14233.333333333332
91.28198029679513,87.54862202269611,65.03554059109615,14266.666666666668
91.26524504302284,87.54914577877541,64.97570769422622,14300.0
91.41675065510985,87.25050393065914,65.09489014311629,14333.333333333336
91.70250468995589,87.68630532880394,65.29759671449577,14366.666666666668
91.82049989921387,87.5605724652288,65.83529026405967,14400.0
91.35478771454382,87.61806182876644,65.27270902338654,14433.333333333336
91.8970189701897,87.82695975107899,65.97631235571615,14466.666666666664
91.93832179062531,87.84552845528454,66.005972096758,14500.0
91.4545681727309,87.77096661335466,65.6731807277089,14533.333333333336
91.62446050386428,87.61575328716248,65.96564789721971,14566.666666666664
91.72657438583364,87.97428607058237,66.061628631999,14600.0
91.87950525664812,87.80343846629562,66.5643537414966,14633.333333333332
91.71712244395172,88.0220990391722,66.45491500369549,14666.666666666664
91.77821126242179,88.16049564470617,66.60269905533063,14700.0
91.79649776453056,87.75479384003971,66.51028315946347,14733.333333333332
91.52437959845369,87.69896495822422,66.11353036538222,14766.666666666668
91.7939393939394,87.52366641622841,66.25336839469071,14800.0
91.4955672426747,87.60002504382669,66.08131730528424,14833.333333333336
91.96341281669147,87.67312468951813,66.70859413810234,14866.666666666668
91.93006609302904,87.58945005611673,66.66147898740492,14900.0
91.77433985083653,87.4855623866156,65.97535779076799,14933.333333333336
91.87937940475588,87.29650661664047,66.24382700400548,14966.666666666664
91.80927796483351,87.80266866192792,66.41992767177953,15000.0
92.1154508043397,87.83728644469385,66.60299289188178,15033.333333333336
91.99609152752012,88.01286332714905,66.4830426716141,15066.666666666664
91.71744607941947,87.55069542430962,65.81858496270914,15100.0
91.91198403790995,87.7425614166355,66.36296296296297,15133.333333333332
91.48198333835192,87.59342065642879,65.68423165713139,15166.666666666664
92.16015896671637,87.7907352210631,66.37640337804272,15200.0
91.85137909709341,87.84615955473099,66.1095361781076,15233.333333333332
92.17873632440028,87.49889591488508,66.03216902539397,15266.666666666668
92.1406722434993,87.41564200765974,65.88061882684943,15300.0
92.16802449144824,87.4846169416051,65.67245218095334,15333.333333333336
92.63376979673276,87.9015837386208,66.47542087542088,15366.666666666668
91.89578942085716,87.60225333734819,65.44973903442738,15400.0
92.40800598578377,87.83835889761816,66.12789624641475,15433.333333333336
92.14075448361164,88.02728509585653,66.16447742733456,15466.666666666664
92.07804576376007,88.0530364873222,66.1682622139765,15500.0
92.19710428585769,87.51723878349895,65.94509685837599,15533.333333333336
91.72959951821741,87.65662952925825,65.28851751480478,15566.666666666664
92.05698584763626,87.79095152062632,65.66714343069357,15600.0
92.0804948187813,88.4160592989241,65.75675541672864,15633.333333333332
92.28773051389228,88.29577083845587,66.4710843373494,15666.666666666664
92.25283922575548,88.16539107248667,66.35887813549279,15700.0
91.74585226150505,87.98212522220028,65.78034268220425,15733.333333333332
91.9804710645862,87.98153268812958,65.96523800118507,15766.666666666668
91.63401360544218,87.88368583797156,65.57840445269017,15800.0
92.39734347224966,88.08488050562906,66.19432648627297,15833.333333333336
92.06400912291141,88.06306708314743,65.80720412514255,15866.666666666668
92.03951608904757,88.03773117159996,65.76451484952155,15900.0
92.3364605964843,88.2225706103101,66.25219731384556,15933.333333333336
91.76323894684549,87.73837555886736,65.46850471932439,15966.666666666664
91.97094400798105,87.81725900985161,65.69594712557678,16000.0
91.68209595959593,87.68618686868686,65.16570707070707,16033.333333333336
91.93183070373152,87.74082143751566,65.57806160781368,16066.666666666664
92.09224192128755,87.80457688922421,65.66163711806865,16100.000000000002
91.57190082644628,87.79231154520409,65.23996994740797,16133.333333333332
91.9697967327597,87.68487342561417,65.6747225339818,16166.666666666668
91.74092764378479,87.92687693259123,65.56032158317873,16200.0
92.12204976595221,88.01830500123181,66.19265829021927,16233.333333333336
92.54887017951323,88.93888808245029,67.0608457928098,16266.666666666664
92.2556840264283,88.70508647493199,66.68441507967353,16300.0
92.03492888064319,87.7764502164502,66.41959183673471,16333.333333333332
91.84098948670378,87.71930735930736,66.15529993815709,16366.666666666668
92.12967734020364,88.06401668506932,66.64080480922587,16400.0
91.90477242056193,88.24978530241688,66.10624463256043,16433.333333333332
91.96480836236934,87.66172224987555,65.70241413638625,16466.666666666664
92.1282127396413,87.90023500309215,65.98881880024736,16500.0
91.62508782495232,87.61028304727492,65.13710729699889,16533.333333333336
91.93231960327904,87.56768039672096,65.36377896973991,16566.666666666668
91.60738246664174,87.89564783638856,65.13602693602694,16600.0
92.09164002950577,88.16417506761739,66.08460781903122,16633.333333333332
91.74774532567518,88.31193938653307,65.88659415862153,16666.666666666668
91.72120249297323,88.31602101918611,65.88634974948063,16700.0
92.08066653578086,88.26207421223127,66.30607637184647,16733.333333333336
92.0045401001276,88.36431235888878,66.14214194561697,16766.666666666664
92.16624522782487,88.13471168625118,66.33767167435172,16800.0
92.05700852189243,88.46456557939074,66.44747281810167,16833.333333333332
92.51941913997452,88.40995690077379,67.0854393182486,16866.666666666668
92.45229899188593,88.2790508974674,66.9439636095402,16900.0
92.14940610582113,88.43491705114361,66.34971041523511,16933.333333333332
92.48069830341775,88.22235062699778,66.75254487337104,16966.666666666664
92.03091052735529,88.08559648429785,66.24019849891368,17000.0
92.32527641429917,88.07499132331795,66.70692647131737,17033.333333333336
91.71949120838006,87.9884274847238,65.89647088165607,17066.666666666668
91.890424069893,88.38171198586436,66.26887209188182,17100.0
92.04667163437657,87.89282165921509,66.52200695479384,17133.333333333332
91.92614994390516,88.44029559533682,66.75949953660798,17166.666666666668
91.74549527127924,87.7302887008462,66.35803882528622,17200.0
91.5660945498344,87.65813509986954,65.82309545317676,17233.333333333336
91.99599257884972,87.99866419294996,66.34585034013605,17266.666666666664
92.01553494124924,87.99851576994435,66.34639455782313,17300.0
91.58797773654915,88.11517625231913,65.71955473098329,17333.333333333332
91.99134810848331,88.09370816599733,66.17328573553472,17366.666666666668
91.62519017333832,88.0074074074074,65.57640603566529,17400.0
92.32997845038692,88.56959545499069,66.45819864825154,17433.333333333332
91.93357969943337,88.27585612219757,65.94360679970436,17466.666666666664
92.11409050837496,88.55828190812029,66.16688706043686,17500.0
92.4538480452422,88.22254733218588,66.64312761249077,17533.333333333336
91.9751598988547,88.24522782487976,66.01477514998265,17566.666666666668
91.98385039289724,87.8439381569548,65.44797938565159,17600.0
92.03309039764736,88.03500831095768,65.35404679708478,17633.333333333332
92.2110219203458,87.77027374704126,65.67783266440259,17666.666666666668
92.22510822510824,87.85212630506749,65.86753246753247,17700.0
91.81414141414145,87.90267676767677,65.86737373737374,17733.333333333336
91.84133690921972,87.66468474850723,65.872887359579,17766.666666666664
91.68887131339932,87.75094397387491,65.26199101949179,17800.0
91.840603177816,87.7205495395203,65.85887055965996,17833.333333333332
91.67187025604694,87.74248557838276,65.48863981378403,17866.666666666668
91.71230138649936,87.7398036635968,65.49951927942516,17900.0
91.83159995011849,87.88472378102009,65.9947624392069,17933.333333333332
91.51204456489008,87.85167620194721,65.6481983338352,17966.666666666664
91.70307638261568,87.91475961055906,65.75652413931547,18000.0
91.42632533763357,87.78739165490829,65.332745414231,18033.333333333336
91.91782093746865,87.8523788015658,66.01352504265782,18066.666666666668
91.97922312556459,87.86821238582756,66.0622804376192,18100.0
91.3217849223947,87.70887925821405,65.22785224753073,18133.33333333333
91.66304676476514,87.69827151783916,65.4381425115904,18166.666666666668
91.33559356340452,87.64080052626251,65.0344600748912,18200.0
91.71649279682066,87.91915052160955,65.93768007948336,18233.333333333336
91.53037754595131,87.98201689021359,65.8598609041232,18266.666666666664
91.60014842300558,88.11265306122448,65.96549165120594,18300.0
91.86601323326092,88.10028639146752,66.15929290934228,18333.33333333333
92.243432489859,89.0037908054858,66.84933359088275,18366.666666666668
92.39066750874466,88.74934415079674,66.91515254566653,18400.0
92.16328471781864,88.57487439637094,66.48665918735672,18433.33333333333
92.30911450680773,88.43711431090216,66.76111764129689,18466.666666666664
92.30475560779705,88.46569203643844,66.81469781565285,18500.0
92.01535952485271,88.67869139769242,66.73199941580255,18533.333333333336
92.29561972586704,88.51431637481099,67.02443783230086,18566.666666666668
91.75920826161793,88.32210474551266,66.1338332923531,18600.0
91.87094619666048,88.13833024118738,66.1978231292517,18633.33333333333
91.78468158347677,88.31880993361199,66.13843127612489,18666.666666666668
91.7958691910499,88.29085320875338,66.16569953282517,18700.0
92.30236519849892,88.26888702350384,66.44059845941142,18733.333333333336
92.10248431743506,88.18057353380466,65.89472767101465,18766.666666666664
92.36544538810982,88.22995259727435,66.25515998419911,18800.0
91.91078688115722,88.0761690983913,65.26724030427735,18833.33333333333
92.30634551158786,87.82238639813784,65.39945349660965,18866.666666666668
92.46614074630604,88.04295016278488,65.76992236413724,18900.0
91.97939892754707,87.9640104751216,65.4233196159122,18933.33333333333
92.42194787379974,87.92343184935778,65.92033919441327,18966.666666666664
91.93091407906223,88.02361890510038,65.50283077690486,19000.0
92.09447455585669,87.80736224028904,65.81747465622804,19033.333333333336
91.66768292682929,87.81507397041183,65.46381447421031,19066.666666666668
91.59374686339457,87.69386730904347,65.32520325203252,19100.0
92.06422268490978,88.04635137814795,66.29171624033314,19133.33333333333
91.72010707911957,88.07847511401943,66.16074261352371,19166.666666666668
92.04585665733707,87.72173630547779,66.30417832866853,19200.0
91.8282208588957,87.57891801450084,65.50377731582418,19233.333333333336
92.4273104488872,87.93426379982397,66.13381114045015,19266.666666666664
92.46030428769018,87.9774676222809,66.2040739343644,19300.0
91.905513001411,87.83521467446079,65.38361721427131,19333.33333333333
92.49153518657651,87.9426997245179,65.98174305033811,19366.666666666668
92.06823221124772,87.55235839548479,65.30694416448297,19400.0
92.27453042824943,87.78948159278738,65.76366140746306,19433.33333333333
91.92847383868029,87.83136828256252,65.29012751745775,19466.666666666664
91.92394494484364,87.82828155045038,65.25493371116282,19500.0
92.21195323523486,87.683682725257,65.87331183229188,19533.333333333336
91.60079795242396,87.66127170530964,65.32625715146041,19566.666666666668
91.96798780487805,87.81654838064777,65.94407237105158,19600.0
91.76894874672656,87.96398553435591,65.92482853223595,19633.33333333333
92.43879616827968,88.4311919810389,66.91304562512343,19666.666666666668
92.49758812615956,88.47458256029684,66.98256029684603,19700.0
92.05155256266369,88.1843621399177,66.18002244668912,19733.333333333336
92.01015089163236,88.09894001745856,66.14108991146028,19766.666666666664
91.79461003477395,88.25469448584202,65.66301539990063,19800.0
91.85380847660936,87.99102858856456,65.82097161135546,19833.33333333333
91.6416530318806,88.17050919728294,65.70305915018098,19866.666666666668
91.59528619528619,88.0598827784013,65.54665170220726,19900.0
91.78137334277908,87.5574840603178,65.59151401679992,19933.33333333333
91.61422489356372,87.8335837716003,65.51104432757326,19966.666666666664
92.19148037754593,88.0023348236463,66.30983606557378,20000.0
92.27730324874099,88.2995704552187,66.45536684111781,20033.333333333336
92.7516129032258,88.67091886608016,67.08988269794722,20066.666666666668
92.56108452950559,88.39774260826893,66.85837320574163,20100.0
92.71810132094645,89.22802051579815,67.2532781729327,20133.33333333333
92.5043010752688,88.70977517106549,67.10948191593353,20166.666666666668
91.85050505050505,88.34437053461443,66.1420054200542,20200.0
91.81034828866808,87.69803272106796,65.89782194118237,20233.333333333336
91.46643842463014,88.02426529388245,65.41680827668932,20266.666666666664
91.44199820071972,88.01064574170331,65.38507097161136,20300.0
91.85543282686923,87.92200619752099,66.01846761295482,20333.33333333333
91.30407555431104,87.35195886261235,65.04027187332943,20366.666666666668
91.76814212586572,87.81674696376595,65.92105791428284,20400.0
91.44446953728796,87.82813911472448,65.60370872227243,20433.33333333333
91.5733661207727,87.4061501799929,65.55374435937739,20466.666666666664
91.74575077944284,87.64623353112742,65.91179724429247,20500.0
91.56928820308607,87.86528123444498,65.78377302140368,20533.333333333336
91.55855379188715,87.57634164777022,65.6822121441169,20566.666666666668
91.24882934768999,87.74934268185802,65.54693877551021,20600.0
91.98683589578005,88.25160825612879,66.52177044782793,20633.33333333333
91.74291096569502,88.42420186396986,66.28130577037477,20666.666666666668
91.42216569404957,88.04254576288093,66.00179560077811,20700.0
91.33785428180298,87.45804390812755,65.56327637783299,20733.333333333336
91.06365664452672,87.47398975815037,65.23046696749988,20766.666666666664
91.62165010538996,87.67705510388437,66.19384221619994,20800.0
91.29088415014341,87.95864821050007,65.9234069085921,20833.33333333333
91.51435310649404,87.79428886881462,65.92557462611663,20866.666666666668
91.57949320271892,87.91590863654537,66.03768492602958,20900.0
91.39061102831594,88.0467958271237,65.56862891207153,20933.33333333333
91.59063535079795,87.62089732008431,65.64275318679114,20966.666666666664
91.2392410804273,87.55130014110058,65.13122354364039,21000.0
91.56002598960414,87.61213014794079,65.72318572570971,21033.333333333336
91.37744902039185,87.66008596561376,65.60505797680928,21066.666666666668
91.35710715713716,87.66098560575769,65.56962215113954,21100.0
91.64469978879612,87.45753293774513,65.83599014381977,21133.33333333333
91.31252998055996,87.39947991618067,65.11666540432729,21166.666666666668
91.85108456617351,87.62947321071572,66.02873850459817,21200.0
91.12322626914606,87.14919829926744,64.69015419292046,21233.333333333336
91.8018168242907,87.84397710303635,65.77229965156792,21266.666666666664
91.80701841712296,87.85505226480836,65.78725734196118,21300.0
91.60249949606934,87.80931263858093,65.05389538399517,21333.33333333333
91.96741220524237,87.81095030867321,65.29824916506426,21366.666666666668
91.841793699187,87.92990345528456,64.97362804878048,21400.0
92.2951321414691,88.32187621453556,66.79571511853868,21433.33333333333
91.95745605563069,88.37111261348271,66.48413656557852,21466.666666666664
91.84084462653641,88.23794516230697,66.30711047540547,21500.0
92.47440602665635,88.53508305968707,66.83298725130382,21533.333333333336
91.61660507514166,87.80234047795021,65.49595959595959,21566.666666666668
92.00750124192749,87.7101341281669,65.78050173869846,21600.0
91.71166533386645,87.60120951619352,65.37200119952021,21633.33333333333
91.9071003829873,87.48155613787544,65.70341161056238,21666.666666666668
91.83915700211998,87.53166230203269,65.81681007606934,21700.0
91.60865653738504,87.67423030787684,65.55612754898041,21733.333333333336
92.11749594712559,87.97398678139419,66.10981419129568,21766.666666666664
91.723616328575,87.88417230152768,65.56348610067619,21800.0
91.7644095273725,87.68385085422123,65.811747100636,21833.33333333333
91.83849374421888,88.34613699430409,66.32907356019668,21866.666666666668
91.78669490287716,88.3512000389465,66.26899858818948,21900.0
92.29769279547341,88.42536949417101,66.8592751573094,21933.33333333333
91.6059374230106,87.90165065287016,65.68159645232818,21966.666666666664
91.73602693602696,87.61977802718546,65.6467888764185,22000.0
91.70120979786915,87.8105147864184,65.63840485910585,22033.333333333336
91.84265456889284,87.71952005553075,65.77148098567108,22066.66666666667
91.963904799526,87.85144677068932,66.03295970768319,22100.0
91.42715682322113,87.60290264059665,64.9347409796412,22133.33333333333
91.78945654896069,87.63713999499123,65.55379413974455,22166.66666666667
91.37847712154809,87.45031243700865,65.07803366256803,22200.0
91.70162265672244,87.48412618423706,65.46711852449103,22233.333333333336
91.5696900406504,87.43833841463415,65.15533536585366,22266.666666666664
91.54725609756098,87.45309959349593,65.10434451219513,22300.0
92.0656310090072,87.4508905981176,65.67736059103329,22333.33333333333
91.37159661309131,87.22476296709426,64.82282107184507,22366.66666666667
91.300941705168,86.97215279355702,65.06501047741675,22400.0
90.81805555555556,86.85606995884773,64.37350823045267,22433.33333333333
91.1969712115154,87.19857057177128,65.62315073970412,22466.666666666664
91.21543035678292,87.10139084861923,65.5276405966539,22500.0
90.99757596961216,87.23975409836065,65.4967762894842,22533.333333333336
91.38939074575931,87.17750677506777,65.8491669175951,22566.66666666667
91.08196929969708,87.16938624850442,65.0542219280605,22600.0
91.31952542716623,86.97155605131066,65.60913654109416,22633.33333333333
90.96672907600443,87.02818540633541,65.25253010828864,22666.66666666667
90.97183989474749,87.02568059912964,65.28263839692339,22700.0
91.2575687720916,86.73192971671534,65.39757184570463,22733.333333333336
91.37159552845527,87.13526422764228,65.32685467479675,22766.666666666664
91.52856280800563,87.22402695363573,65.73838378758926,22800.0
91.16660835665732,87.29928028788484,65.42532986805278,22833.33333333333
91.8004591685593,87.75029623778019,66.33761232349165,22866.66666666667
91.64264822526276,87.50081796549671,66.09820543327385,22900.0
91.1248880039821,87.2368093578895,65.40395719263314,22933.33333333333
91.33140866102538,87.2545793927327,65.57229965156796,22966.666666666664
91.10048480607756,87.12547481007597,65.28171231507396,23000.0
91.66854669140385,87.41150278293136,66.05753865182437,23033.333333333336
91.19156296665008,87.21936286709807,65.60037332005973,23066.66666666667
91.15863613738178,87.23038825286211,65.53384768541562,23100.0
91.72891416030724,87.39625417726569,65.95560875854157,23133.33333333333
91.30067972810876,87.26666833266692,65.3391143542583,23166.66666666667
91.45858895705521,87.07970431459319,65.54337222166349,23200.0
91.09106119758655,87.0049181159053,64.95522993459413,23233.333333333336
91.33114870700605,86.85774526240921,65.31806635167403,23266.666666666664
91.28974084277115,86.78009896949291,65.18763391490664,23300.0
91.21422788909128,87.0368599473791,65.10081461242663,23333.33333333333
91.72764759127024,87.11271748969124,65.64376948607061,23366.66666666667
91.22446689113356,86.69179165391287,64.66998265483114,23400.0
91.45732030599106,86.8168850513772,65.21323436592694,23433.33333333333
91.36494303242769,87.11280831350945,65.41620132715663,23466.666666666664
91.69544418005155,87.55782768193535,65.8886327582788,23500.0
91.57922659157197,86.99253243487881,65.86699185356532,23533.333333333336
90.98518079430944,86.56758846421484,64.78405195742378,23566.66666666667
91.42800061472259,86.69927257824905,65.32672506531428,23600.0
91.27178423236515,87.05517135392654,64.89116848522104,23633.33333333333
91.61227502991116,87.22241173026501,65.39681287070744,23666.66666666667
91.74807711770063,87.3446766521607,65.67212326687583,23700.0
91.32674863938723,87.22860814351945,65.28041221527918,23733.333333333336
91.63116008570556,86.92837465564739,65.33272115090297,23766.666666666664
91.27613337381098,87.18230115361263,65.14873001416717,23800.0
91.58424763892778,87.0634625665046,65.32571341292672,23833.33333333333
91.00211713090499,86.86238649117433,64.74961738598104,23866.66666666667
90.94189368431792,86.90898887868583,64.69765840220386,23900.0
91.41937438460957,87.12274988007776,65.41061374940038,23933.33333333333
91.86169449598025,87.95782312925171,65.87200989486705,23966.666666666664
92.00338608759662,88.02630352104036,66.36859281069808,24000.0
91.56934030144664,87.60458481658209,65.22704435860537,24033.333333333336
92.2360433604336,88.05597437792558,66.37519093372752,24066.66666666667
92.15930497719611,87.86783660519531,66.18808249058101,24100.0
91.7377801915671,87.83176162733288,65.8617063296139,24133.33333333333
92.288734115347,88.23453079178888,66.83240469208211,24166.66666666667
91.70191073368223,87.89221882097364,66.25365359928902,24200.0
92.15204563335956,88.13453973249409,66.99547600314713,24233.333333333336
91.78918464278645,88.09563625568968,66.52115080150405,24266.666666666664
91.87180369787569,88.28988001573566,66.71624213217939,24300.0
92.05760719905588,88.1332857985838,66.97157749803304,24333.33333333333
91.18891216519528,87.53366751458925,65.84093969774054,24366.66666666667
91.45774383372981,87.36496807311882,66.08333542005761,24400.0
91.31328245797796,87.49438874756845,65.8792209087735,24433.33333333333
91.68952215032354,87.5087356893977,66.05686908909904,24466.666666666664
91.73852663016426,87.50428073668492,66.09539571926331,24500.0
91.64940268790444,87.6322050771528,65.79126431060229,24533.333333333336
92.19127999206822,87.88553440412453,66.61377156454492,24566.66666666667
91.73554927622448,88.05515070394605,66.16904620265714,24600.0
91.79064211050272,87.83305126928819,66.19260826281732,24633.33333333333
91.45340965654556,87.84591836734694,65.92170233947238,24666.66666666667
91.7258813073961,88.21277278562259,66.32299792633553,24700.0
91.66473410635746,87.6529638144742,66.15998600559776,24733.333333333336
91.62679035250463,87.95564625850339,66.35512677798393,24766.666666666664
91.80746640119465,87.55261324041811,66.63852663016425,24800.0
91.45030795762504,87.98154717910816,66.28563685636857,24833.33333333333
91.83346499456896,87.86264441591784,66.5424854349758,24866.66666666667
91.55241413638626,87.5747137879542,66.15535092085614,24900.0
91.29652442795299,87.6935312306741,65.94780457637603,24933.33333333333
91.64809413657852,87.21417077340843,66.07196017298602,24966.666666666664
91.64128494943485,87.75897283363079,66.00949335712869,25000.0
91.97893119175095,87.68820642474718,66.20280586952211,25033.333333333336
91.63163265306122,87.59168740666998,65.54091587854654,25066.66666666667
91.67103036336485,87.60833748133398,65.46493280238924,25100.0
91.77401385124962,87.51465422061628,65.57801365050689,25133.33333333333
91.56408163265309,87.74896722325295,65.53842918985777,25166.66666666667
91.75604737528856,87.60677004918197,65.66731908059822,25200.0
91.57772789624642,87.69911460281831,65.52056366130441,25233.333333333336
91.73795330352706,87.7009438648783,66.29115747640338,25266.666666666664
91.83604205318493,87.83735312306742,66.48690166975882,25300.0
91.20859413810234,87.68358171882763,65.86204669647293,25333.33333333333
91.60651755895151,87.5222143507742,65.93538103430826,25366.66666666667
91.3393217093328,87.52847208224148,65.3897903648458,25400.0
91.77870621298807,87.42394359128777,65.99447957442537,25433.33333333333
91.74286077235772,87.34514735772358,65.56283028455285,25466.666666666664
91.73490853658535,87.34862804878048,65.56610772357722,25500.0
91.87782107074185,87.18484971156765,65.87534156461896,25533.333333333336
91.70691056910569,87.2961382113821,65.3375,25566.66666666667
91.7581949328747,87.13756192725313,65.32902944271889,25600.0
91.21771535770421,87.26284033869088,64.97764031840998,25633.33333333333
91.48730094738964,87.38689276355574,65.4222434992945,25666.66666666667
91.65996101559375,87.63971911235504,65.77391543382646,25700.0
91.64305384804524,88.28227194492254,66.06385542168674,25733.333333333336
92.11054446908103,88.4158659768416,66.61251539788125,25766.666666666664
91.28439522150323,87.93656047784967,65.47941762070681,25800.0
91.81174089068828,88.29330008887129,66.15466080774168,25833.33333333333
91.20988053758087,87.82003484320559,65.47717770034843,25866.66666666667
91.21587854654057,87.82807366849178,65.51692384270781,25900.0
91.50832167133149,87.55440323870451,65.83221711315474,25933.33333333333
91.17963966676705,87.42788316772057,65.5770852152966,25966.666666666664
91.4914339536186,87.46119186416516,65.71015451976682,26000.0
91.14693505044872,87.4639760685494,65.39565481924657,26033.333333333336
91.77095924376259,87.40022728446716,65.80122940234516,26066.66666666667
91.7304177379528,87.54140467886873,66.00285110607642,26100.0
91.13568332997379,87.69330780084661,65.35607740374925,26133.33333333333
91.27579590497109,87.49935620692267,65.56312959175945,26166.66666666667
90.98012472747554,87.36563910155657,65.17309739897581,26200.0
91.56821984485121,87.2530041068803,65.62825128023121,26233.333333333336
91.54300913379505,87.48416641573824,65.5263725785406,26266.666666666664
91.60378348660535,87.59936025589764,65.64444222311076,26300.0
91.60738720997752,87.3896336691156,65.6065540659951,26333.33333333333
91.33027847206442,87.40932616324572,65.38147895680274,26366.66666666667
91.6457141423266,87.59728495433103,65.73715246411722,26400.0
91.30952561286577,87.5760811936681,65.3153323739554,26433.33333333333
91.63535079795244,87.76380106393654,66.04022382816422,26466.666666666664
91.6869667770752,87.77045066746966,66.09284352102779,26500.0
91.19422353505516,87.60372642581233,65.47898204953421,26533.333333333336
91.48882829659924,87.51798833598423,66.04044535332879,26566.66666666667
91.24412827461607,87.67035531466426,65.82826457894208,26600.0
91.46221017765734,87.71296296296295,66.22405399979925,26633.33333333333
91.4822582673205,87.98088771532755,65.91404501445996,26666.66666666667
91.45298629448007,87.96212749905695,65.9066012825349,26700.0
91.89540879567652,88.12070504239179,66.67802072487481,26733.333333333336
91.26584706171623,88.05788050159822,66.10307351856405,26766.666666666664
91.75217944950528,88.259060632775,66.75423645802724,26800.0
91.47297762478485,88.18281288418981,66.19997541185147,26833.33333333333
91.81340909090908,87.73121212121212,66.31931818181818,26866.66666666667
91.73997233748273,87.64287690179806,66.30036464227335,26900.0
91.55469696969696,87.67563131313132,65.91666666666667,26933.33333333333
91.601516831284,87.39112578109253,65.95829973795605,26966.666666666664
91.31596354363907,87.4225049862405,65.52013431290868,27000.0
91.4897581503828,87.32193378289307,65.69018404907976,27033.333333333336
91.40016192693048,87.60499949397835,65.65985224167595,27066.66666666667
91.39543062443072,87.593942920757,65.61281752859023,27100.0
91.62364639206558,87.63652464325473,66.1108187430422,27133.33333333333
91.11979736781817,87.37777155512562,65.43107705623298,27166.66666666667
91.39052814917272,87.09891911275038,65.84183699605552,27200.0
91.03041252634749,87.54273311251629,65.83094951319882,27233.333333333336
91.09210794816856,87.1787062544638,65.65738189980614,27266.666666666664
91.12712988470564,87.16954902560963,65.62792062034487,27300.0
91.12658738157629,87.46714372102396,65.63407075186454,27333.33333333333
91.54359000201572,87.41271920983671,65.93002922797822,27366.66666666667
91.47566078171242,87.50921012348198,65.4669354015716,27400.0
91.5212144308943,87.45706300813008,65.64916158536586,27433.33333333333
91.30613787542835,87.57160854666401,65.57085265067526,27466.666666666664
91.30563394476921,87.58488711953234,65.54928441846403,27500.0
91.45785708830792,87.33966346765776,65.86424152941476,27533.333333333336
91.25125602767048,87.41066424297506,65.72468378398848,27566.66666666667
91.46572317575027,87.53505470239887,65.92703001104086,27600.0
91.2534594325535,87.83954703832752,65.66114982578397,27633.33333333333
91.48685525789685,87.7015943622551,65.77586465413836,27666.66666666667
91.61535589845694,87.82620706819313,65.96849178695868,27700.0
91.02546923617383,87.48165713138613,65.06652112817424,27733.333333333336
91.23155676001205,87.44858476362543,65.37538893907457,27766.666666666664
91.10085965613754,87.68959916033586,65.1327219112355,27800.0
91.26776355573472,87.42244507155816,65.38064402338239,27833.33333333333
91.18977103036335,87.6728969636635,65.6204081632653,27866.66666666667
91.1659532105525,87.69059233449477,65.60978098556495,27900.0
91.65568609954391,87.89331746976005,66.407916914535,27933.33333333333
91.73337922895357,88.384121754524,66.57806353265146,27966.666666666664
92.01698957513769,88.44345003933908,66.87925354051927,28000.0
90.92638036809817,87.28854636718552,65.08446990822897,28033.333333333336
91.43071865903843,87.51324902137911,65.94672789320487,28066.66666666667
91.54793082766894,87.59746101559375,66.1046831267493,28100.0
91.56182353234577,87.96857698638334,66.1909322160706,28133.33333333333
91.89580568423688,87.76226367847751,66.67023913860021,28166.66666666667
91.46617720258837,87.88277750124439,66.10647088103535,28200.0
91.77658038825285,87.89104031856644,66.56923842707815,28233.333333333336
91.76006284602722,88.12045488553045,66.57855753404161,28266.666666666664
91.9721015826279,88.52908845540425,67.02139614771194,28300.0
91.97201855454136,88.13225098508656,66.74477530051375,28333.33333333333
91.34446221511395,87.78476109556179,65.93862455017992,28366.66666666667
91.44655815359806,87.43708425720621,65.80943862124572,28400.0
91.02670645852464,87.07269666360575,65.12674727068665,28433.33333333333
91.23418369960557,86.85072486040674,65.33064392193023,28466.666666666664
91.50968214294731,87.27518998207478,65.85432603701179,28500.0
90.92999034699993,87.121729411167,65.18767464309302,28533.333333333336
91.76821877309679,87.95215570337521,66.59288001970928,28566.66666666667
91.13554762144224,87.5541084179825,65.34680177008951,28600.0
91.85212787313057,87.70189701897019,65.80091337950418,28633.33333333333
91.50671976107515,87.77160278745643,65.26351418616227,28666.66666666667
91.51541883246702,87.78058776489405,65.10578268692522,28700.0
91.73906265714571,87.51335110127728,65.22279493110732,28733.333333333336
91.63618379867285,87.52650557155377,65.17335670464504,28766.666666666664
92.0326450197017,87.75155868123095,66.05738440819991,28800.0
92.08616168612707,88.31886997823074,66.03535028695822,28833.33333333333
91.71738911797243,87.54603741325556,65.59355828220859,28866.66666666667
91.65136711353479,87.46497008255699,65.47443762781185,28900.0
91.39196117471378,87.72379293180687,65.45047287207565,28933.33333333333
91.57384546181528,87.60288384646141,65.80765193922431,28966.666666666664
91.42832560227444,87.95855154870567,65.74425158362013,29000.0
91.87994963957735,88.09254961982819,66.24264342845858,29033.333333333336
91.45377255601824,87.81330557208011,65.48874677771168,29066.66666666667
91.69672432830328,88.14125874125875,65.87231014599436,29100.0
91.80544583785921,87.88905895131826,66.10568282808336,29133.33333333333
91.0485014583124,87.40458111234034,65.17306145026653,29166.66666666667
91.3675348790525,87.35702097761718,65.491041854863,29200.0
91.26067073170731,87.52878848460615,65.20579268292683,29233.333333333336
91.49954646240677,87.38900927232412,65.55409695625882,29266.666666666664
91.55285385845659,87.52376549380247,65.82521991203518,29300.0
91.21194022391045,87.53828468612555,65.16148540583767,29333.33333333333
91.5124450219912,87.51904238304678,65.7781887245102,29366.66666666667
91.32814833250372,87.8079143852663,65.67237431557989,29400.0
91.72937735474916,88.03477592702757,66.02034999008526,29433.33333333333
91.3866745984533,87.94021415823912,65.56243803291692,29466.666666666664
91.39119356833643,88.01006802721088,65.61773654916513,29500.0
91.91168831168831,87.91072356215214,66.0295856524428,29533.333333333336
91.5309736711376,87.7365126676602,65.36251862891207,29566.66666666667
91.84740522635259,88.08673782357994,66.16523125996811,29600.0
91.35151515151516,87.7726654298083,65.6361410018553,29633.33333333333
91.61368604073523,87.63631395926477,66.00817188276204,29666.66666666667
91.68588744588743,87.76460111317255,66.20190476190477,29700.0
91.35205792682927,87.26798780487805,65.3670731707317,29733.333333333336
91.48929764193909,87.19276895051108,65.93148466754377,29766.666666666664
91.34687784637184,87.51022163748608,65.66655702864082,29800.0
91.51788953839953,87.45159746018948,66.15934287442047,29833.33333333333
91.2244759121145,87.46852953033662,65.74664886111671,29866.66666666667
91.16839807286962,87.48215898825657,65.76425273511994,29900.0
91.53046281487406,87.64479208316673,66.23708016793283,29933.33333333333
91.37393140903148,87.50118173589459,65.63305843306847,29966.666666666664
91.78522558004494,87.35426292004342,65.78934080638238,30000.0
91.4676967355904,87.34704233886238,65.33164179858113,30033.333333333336
91.74724517906336,87.02456382001837,65.39914294459749,30066.66666666667
91.82541877977563,87.0433379437529,65.39928794631423,30100.0
91.65509253366596,87.29035460631826,65.33531043963039,30133.33333333333
91.4793388429752,87.08458320579533,65.42266095296397,30166.66666666667
91.53861915136423,87.27837431268803,65.04959020645295,30200.0
91.52901329243349,87.19164110429449,65.5739008179959,30233.333333333336
91.33206165901943,87.19366396865496,65.22534412538022,30266.666666666664
91.29687580553694,87.18167757900706,65.16551528586895,30300.0
91.48330777096115,87.18195296523517,65.7006390593047,30333.33333333333
91.1319909375557,87.18794389430543,65.23284881500904,30366.66666666667
91.47799523399078,87.15035745069208,65.76187699640015,30400.0
91.41028588564572,87.59983506597361,65.88964414234306,30433.33333333333
91.73524590163936,87.67113760556383,66.41979632389469,30466.666666666664
91.75769995032292,87.67694982613015,66.44468455042225,30500.0
91.49310602289695,87.80223992035839,66.19325535092085,30533.333333333336
91.80585265893644,87.74162834866054,66.59543682526989,30566.66666666667
91.26546881247499,87.55202918832468,66.015718712515,30600.0
91.58626428216593,87.55628415300545,66.36492796820666,30633.33333333333
91.68676878841957,87.84634642078129,66.30309339678763,30666.66666666667
91.40238904438223,87.61495401839264,65.92375549780088,30700.0
91.82675460428074,87.76204579392733,66.47468889995022,30733.333333333336
91.80559274133572,88.0178987555159,65.9616738559175,30766.666666666664
92.34633172679031,88.41441507229445,67.02689742466286,30800.0
91.57625231910947,87.81664811379099,65.87151515151515,30833.33333333333
91.86388474913065,87.54619970193741,66.10789865871833,30866.66666666667
91.87848981619473,87.5654744162941,66.13631395926478,30900.0
92.14901067685379,88.11565775296306,66.56158781467333,30933.33333333333
92.3100450582819,88.06224899598395,66.77240669997062,30966.666666666664
91.89303648732219,87.8091032776747,66.05414965986395,31000.0
92.5253158382518,88.33310570216084,67.00658504463198,31033.333333333336
91.67445183542743,87.76826804631682,66.02535107169254,31066.66666666667
91.85172371488164,88.0408784198258,66.2324377377009,31100.0
92.06962305986696,87.82042374969204,66.35198324710521,31133.33333333333
92.03729982754372,88.10362158167038,66.32264104459226,31166.66666666667
92.5260408967726,88.00118255728012,66.5280610987928,31200.0
91.83890394459499,87.29305931948208,65.22528354913179,31233.333333333336
91.92622455150172,87.23213565813343,65.50246926022979,31266.666666666664
91.99420355314665,87.35129980929439,65.63663053297199,31300.0
91.63822817980244,87.36172142713163,65.26758718000403,31333.33333333333
91.88841463414634,87.30762195121952,65.57261178861789,31366.66666666667
91.58012220975183,87.54069085920936,65.55493203641353,31400.0
91.74254946155772,87.41219634360131,65.70570999248686,31433.33333333333
91.44833458552469,87.38527422990235,65.39115952917606,31466.666666666664
91.46869521662909,87.36987227648385,65.41602804908591,31500.0
91.59239955470095,86.9462604999494,65.72867118712679,31533.333333333336
91.00434106192915,87.06790123456791,65.54978420154572,31566.66666666667
91.61877794336807,87.25161450571287,66.14061102831593,31600.0
91.59102040816327,87.49508967223255,66.06124922696351,31633.33333333333
92.07706941124823,87.94836837227453,66.9309545875811,31666.66666666667
92.05714636240951,87.83903815482763,66.83970065022696,31700.0
91.87348484848484,88.27121212121212,66.74186217008797,31733.333333333336
91.98981720034351,87.9721506563612,66.82372715004294,31766.666666666664
91.4408345752608,87.48482364629906,65.85007451564829,31800.0
91.88365261182976,87.73227510615186,66.56727066258517,31833.33333333333
91.30033395176252,87.60586270871984,65.7687322201608,31866.66666666667
91.21770988574268,87.53380526577247,65.57536015896672,31900.0
91.7275353016688,87.78609163622002,66.32684901747803,31933.33333333333
90.99809690747463,87.341404782772,65.25373732315012,31966.666666666664
91.46313861286758,87.09299407808894,66.01761517615176,32000.0
90.88128731909724,86.98031575751442,65.36780184191883,32033.33333333333
91.17426979825352,87.10245408009636,65.75323697681421,32066.66666666667
91.23130417254585,87.12406772828061,65.7376285023181,32100.0
90.83248756595722,86.87146860561992,65.07551314095282,32133.33333333333
91.4933282208589,86.82704498977505,65.40406441717792,32166.666666666664
91.00048366978079,86.79670595422957,64.9127612453224,32200.000000000004
91.2430709534368,86.94675972586172,65.36403950816367,32233.333333333336
91.43814471243044,87.58716141001854,65.76405689548547,32266.666666666664
91.59627987188965,87.84661246612467,65.9649913771865,32300.0
91.58868272731807,87.43727866726519,65.906803331837,32333.333333333336
92.1763393939394,88.52620606060606,66.93219393939394,32366.66666666667
92.44554264964049,88.81300050501406,67.30062766034197,32400.0
91.70625242907113,88.23153905946366,66.25102020987174,32433.33333333333
91.92822966507177,87.84858299595142,66.49998773156668,32466.66666666667
91.96250766777084,87.87069071279598,66.54408048092259,32500.0
91.510125646711,87.45432372505545,66.04348361665434,32533.33333333333
92.02436560729244,87.51697462429169,66.50443458980044,32566.66666666667
91.43822141925124,86.9076332429991,65.61394660242898,32600.0
92.36582014476751,87.83859649122806,67.21209667525457,32633.33333333333
92.1817200343516,88.0402895350264,66.79528892160471,32666.666666666664
92.15195681511473,88.04060851429274,66.80287081339713,32700.000000000004
92.1822109212995,87.73131233336625,66.78386985286856,32733.333333333336
92.35623706949006,88.37561153705731,67.09896555920652,32766.666666666664
92.14671026750591,87.89420239968528,66.83728363493313,32800.0
91.23885445821672,87.16938224710115,65.64731607357056,32833.333333333336
91.76902906617191,87.61998763141621,66.55708101422387,32866.666666666664
91.6173124689518,87.37757078986587,66.33281172379533,32900.0
91.0906137544982,87.33084266293484,65.85050979608157,32933.33333333333
91.3236494658335,87.11230094738964,66.03771920983672,32966.66666666667
90.65644171779141,86.84186543797571,65.40528982002392,33000.0
91.00311818688841,86.95566090351367,65.69778938295391,33033.33333333333
90.83808244181921,86.89218171677739,65.21414085078335,33066.66666666667
90.81129476584023,86.76071319253137,65.06083562901745,33100.0
91.08040832746656,86.94662073820778,65.65978577893996,33133.333333333336
90.95517670482826,87.26087605774015,65.66801891488302,33166.666666666664
91.22081702298505,87.03134096155777,65.74611060925425,33200.0
90.89832379805279,87.30798956137708,65.11946702800361,33233.333333333336
91.1077568972411,87.30662734906038,65.42542982806877,33266.666666666664
91.23036336485814,87.46538078646094,65.63459432553509,33300.0
90.92259830761571,87.62852165256346,65.21381284221005,33333.333333333336
91.57101427721594,87.65204243505848,65.81875867539163,33366.666666666664
91.80429395166237,88.11883204514784,66.05346583241321,33400.0
92.21828284815105,87.9232641620771,66.72415912667189,33433.33333333333
91.38491473329368,87.37410767400357,65.78844437834623,33466.66666666667
91.35385683125124,87.39549871108467,65.74097759270276,33500.0
91.97864619334452,87.56299990125406,66.50103683223067,33533.33333333333
91.77317568907394,87.47060281578426,66.02039956375175,33566.66666666667
91.53792526491915,86.73969477260052,65.52644121076915,33600.0
91.52723327846779,87.48822883934359,65.60279814454586,33633.333333333336
91.87725560182432,87.5966686496133,66.02798433472141,33666.666666666664
91.77919362867098,87.49840716774513,65.81943753111,33700.0
91.41182374786707,87.46223527050086,65.23885877747665,33733.333333333336
91.64000498815314,87.64663923182442,65.64456914827285,33766.666666666664
91.26490312965723,87.675608544461,65.16656731246896,33800.0
91.88761904761904,87.97288806431662,66.03517625231912,33833.333333333336
91.61362384172304,87.83100425745054,65.52582018532432,33866.666666666664
91.70849233071456,87.99079685746355,65.6264372116224,33900.0
92.07179739365624,88.08123924268502,66.23353823457093,33933.33333333333
91.78697092381304,87.9364740522635,65.6633051159367,33966.66666666667
92.07221199852779,87.9610354557723,66.16648264016685,34000.0
91.55784676028578,87.70248829761023,65.88312392214831,34033.33333333333
92.16916247987905,88.12043314960245,66.86186039705379,34066.66666666667
92.04652757370948,87.88546870408463,66.62973846605937,34100.0
91.50837353123067,87.55473098330242,65.95683364254793,34133.333333333336
91.73350720317931,87.43705911574764,66.0390958768008,34166.666666666664
91.41236959761551,87.74918032786886,65.73124689518131,34200.0
91.69420127197904,87.66432223469259,65.93375732634992,34233.333333333336
91.31800931079849,87.54683230442267,65.20268697500254,34266.666666666664
91.17095847611368,87.4699405361822,65.11114190687361,34300.0
91.48359109769899,87.49327297875016,65.35885829246826,34333.333333333336
91.07456229126606,87.38353911547415,64.89138245116891,34366.666666666664
91.43117956423742,87.35735036313551,65.48499874780867,34400.0
91.07818930041151,87.3432348173089,65.3718169347799,34433.33333333333
91.30836762688615,87.33206135428358,65.68005985783763,34466.66666666667
91.31995473406263,87.21564189613983,65.53122092292217,34500.0
91.01249842826608,87.23714321639633,65.23925562680749,34533.33333333333
91.54619307103935,87.4736539519072,65.8443733439984,34566.66666666667
91.23538969154629,87.49152627105934,65.28575713642954,34600.0
91.4177707517816,87.2908260564087,65.43804576934659,34633.333333333336
91.3294675146527,87.64190048634492,65.20603566529493,34666.666666666664
91.3324354657688,87.63426861204641,65.14198777902482,34700.0
91.5353255392058,87.42405764966742,65.16559161459384,34733.333333333336
91.21065681611174,87.30988766319199,64.67321121343994,34766.666666666664
91.60783321526159,87.2957696589414,65.45147252302398,34800.0
91.15541073746914,87.26741847618563,64.8902578723621,34833.333333333336
91.59018892443022,87.51162035185925,65.73822970811675,34866.666666666664
91.7548531607765,87.6659532105525,65.95679442508711,34900.0
91.11027734117529,87.17355371900827,64.94724433402627,34933.33333333333
91.43148446143014,87.2105752790908,65.63117268430051,34966.66666666667
91.38924838227972,87.56963663514186,65.70642110502737,35000.0
91.52512295289765,87.16196826040665,65.80629214622522,35033.33333333333
91.38284151360031,87.56910569105692,65.86221519622603,35066.66666666667
91.50417757825164,87.61296919815439,66.00942760942762,35100.0
91.61410829607551,87.62106308991554,66.31890213611526,35133.333333333336
91.298956780924,87.68236462990559,66.06157476403378,35166.666666666664
91.51698956780923,87.71681569796324,66.37312468951814,35200.0
91.43533316941236,88.11920334398819,66.37526432259651,35233.333333333336
91.50609801720915,87.64960718294054,66.06437211622398,35266.666666666664
91.62059115747641,87.7793343268753,66.22091405861896,35300.0
91.67077325696228,87.99701264072685,65.96168279676081,35333.333333333336
92.23479282985599,88.2045743951415,66.95276226858654,35366.666666666664
91.84271498951271,88.24235403151066,66.81837471342861,35400.0
92.41935562074232,88.60631772891466,67.54587990011879,35433.33333333333
92.29457214603052,88.7407282209774,67.40064226385938,35466.66666666667
92.06545613226987,88.45390191277365,67.08965065819778,35500.0
91.99319545388028,88.2743036925028,66.85278766889421,35533.33333333333
91.66956201693044,88.20544718439457,66.26386946386947,35566.66666666667
92.01076619857108,88.24737620103474,66.49428430647943,35600.0
91.87262912526072,88.38753527174579,66.45591951907741,35633.333333333336
92.42898868200074,88.8268954606304,67.22898868200072,35666.666666666664
92.558934533314,89.0562248995984,67.48833889775972,35700.0
91.70669991112871,88.31729534906685,66.41749777821664,35733.333333333336
91.8237632072677,88.32719462822156,66.63103584477139,35766.666666666664
91.63256042203413,88.46303521040363,66.32089314194577,35800.0
91.70450849963044,88.13291451096329,66.5350332594235,35833.333333333336
91.5147343884186,88.390332474543,66.61808367071525,35866.666666666664
91.64923662260378,88.59055655821669,66.87473781766744,35900.0
92.35669507297483,88.75538740327161,67.5446419825644,35933.33333333333
92.03489142436511,88.4357747515642,67.04666912035333,35966.66666666667
92.28551098024782,88.47579438105755,67.26352594773647,36000.0
91.48671137605564,87.80762543467462,66.1634873323398,36033.33333333333
91.69104031856644,87.88133399701344,66.42772523643603,36066.66666666667
91.63974410235906,87.77399040383847,66.29173330667733,36100.0
91.44761075161772,87.92444001991039,65.90719263315081,36133.333333333336
91.6822586703393,87.68959559283836,66.1538750469513,36166.66666666666
91.1599366388414,87.50082972945792,65.59602232726543,36200.0
91.59480874316941,87.6790611028316,66.18912071535023,36233.333333333336
91.41046382189242,87.88242424242426,65.79280148423005,36266.66666666666
91.31385991058123,87.74942871336313,65.57429210134129,36300.0
91.71525608607271,87.76709306361248,66.07514006643859,36333.333333333336
91.44813993594481,88.04249815225425,66.00879526977089,36366.66666666666
92.02527895724302,88.21506862841908,66.4782512096376,36400.0
92.50677408428896,88.97556491024339,67.17811003048338,36433.33333333333
92.0881990638088,88.06770140428677,66.51428923380143,36466.66666666667
92.12941611234292,88.07265336289726,66.53826065533383,36500.0
91.64922696351269,88.0491774891775,66.13850340136055,36533.33333333333
91.50740993208612,87.37435936277109,65.78121134085687,36566.66666666667
91.38429689852457,87.52913279132791,65.62152464117234,36600.0
91.98397913561848,87.69066070541479,66.44292101341281,36633.333333333336
91.6843882281798,87.4347409796412,65.69298024591816,36666.66666666666
91.68114199849735,87.55101427498123,65.84325068870524,36700.0
91.93680009976308,87.51377977303903,66.56141663549073,36733.333333333336
91.40415949802653,87.48679283473331,65.6558546705799,36766.66666666666
91.70804777262647,87.55865752872404,65.95381475508971,36800.0
91.0520443274972,87.40732213338731,65.27494686772593,36833.333333333336
91.31009736023287,87.51708822643782,65.88279132791328,36866.66666666666
91.38835462058607,87.60110192837465,65.9946155772602,36900.0
91.09165731387957,87.76772664920813,65.94293552812071,36933.33333333333
91.51057740169236,87.73708312593331,66.23227974116476,36966.66666666667
90.94720528455284,87.36008638211382,65.03173272357724,37000.0
91.48855457816872,87.66260995601759,65.98860455817673,37033.33333333333
91.431434065378,87.6677208784536,65.54394798097358,37066.66666666667
91.41258475862769,87.68732921769052,65.47839287521506,37100.0
91.69254124076514,87.68191478595284,65.82425867827143,37133.333333333336
91.30427828868451,87.63474610155937,65.51446921231508,37166.66666666666
92.06436860739576,88.25029504327301,66.69863788355626,37200.0
92.17882438846294,88.61380065717415,66.90317634173057,37233.333333333336
91.94647970771206,87.88071492050953,66.4913103584477,37266.66666666666
91.88139500297441,87.75314792782076,66.30876958159826,37300.0
91.50622149514179,87.62356236367243,65.72161907594686,37333.333333333336
92.07751710654937,88.12749266862171,66.72214076246334,37366.66666666666
91.41761286332716,87.59792207792208,65.89815708101422,37400.0
91.82416790859413,87.4211872826627,66.08656234475906,37433.33333333333
91.89881744271987,87.82079329884209,66.13232323232323,37466.66666666667
91.90155210643015,87.8450603596945,66.11411677753141,37500.0
91.93215530114485,87.61463414634146,66.18964659034346,37533.33333333333
91.7152736466389,87.9570939916716,66.03482550069403,37566.66666666667
91.58412576687115,87.3252300613497,65.52241820040899,37600.0
91.437973091915,87.7230479064504,65.71688670941784,37633.333333333336
91.6677337398374,87.46864837398373,65.93490853658537,37666.66666666666
91.90539851005205,87.5708235534238,66.02793652413511,37700.0
91.33856707317074,87.4061737804878,65.54786585365854,37733.333333333336
91.5924542682927,87.2926575203252,65.83993902439025,37766.66666666666
91.01296301049877,87.15422132094359,64.83335472443977,37800.0
91.38670842210642,87.07839412685782,65.46068742459634,37833.333333333336
91.07223926380371,87.02333844580777,65.17730061349694,37866.66666666666
91.08509713701432,87.05245398773006,65.1851482617587,37900.0
91.4634183440653,87.10016224712265,65.64604776149673,37933.33333333333
91.25637472283812,87.33712961096553,65.20981152993348,37966.66666666667
92.40679671205987,88.38145012881857,66.74354066985646,38000.0
91.94206693600678,87.9805975360367,65.93618135567857,38033.33333333333
91.92595640680332,87.82901890368595,66.27340515736445,38066.66666666667
91.7694002754476,87.60808814323275,66.0410166520596,38100.0
91.20823404147444,87.2864675759266,65.27855802869746,38133.333333333336
91.50612265381912,87.4644434407307,65.95696577336143,38166.66666666666
91.28652578959327,87.3721376454846,65.71587265520462,38200.0
91.64956517393044,87.42150639744102,66.47133646541383,38233.333333333336
90.977929384212,87.10798564264441,65.53099305042895,38266.66666666666
91.02078791258936,87.26261217867464,65.55283171931248,38300.0
91.24387139475093,86.97123437619325,65.86872183896342,38333.333333333336
91.01467829437712,87.09187243319981,65.70351873447245,38366.66666666666
91.88604558176728,87.54280787684927,66.53023790483806,38400.0
91.21160615508398,87.35019611787187,65.55247410238357,38433.33333333333
91.48234163124874,87.29940801457195,65.81605444242057,38466.66666666667
91.58498441114351,87.42781353716181,65.97141204867746,38500.0
91.32700870269177,87.47578931390406,65.54207144302775,38533.33333333333
91.46660967514835,87.35316302926681,65.90812632002414,38566.66666666667
91.11539826598387,87.07268164072403,65.27447649951833,38600.0
91.45619327688486,87.00152106677484,65.66065000253512,38633.333333333336
91.38537361706496,87.02056113150397,65.24013656082347,38666.66666666666
91.37715943219447,87.03883769284083,65.19742279949688,38700.0
91.55642389837843,87.11974645520964,65.55011073492349,38733.333333333336
91.02962962962962,87.09380144032923,64.91988168724278,38766.66666666666
91.34824224219128,87.07955095079296,65.32021485120791,38800.0
91.37932438968511,87.34663849502329,65.25588677035869,38833.333333333336
91.69764160451523,87.34327756500706,65.749420479742,38866.66666666666
91.74644728885305,87.33602096351541,65.77469260229793,38900.0
91.37384095948393,87.33002418867164,65.4011791977424,38933.33333333333
91.49381390593048,86.94700920245397,65.2810327198364,38966.66666666667
91.38371976312357,87.44168423165712,65.409314463515,39000.0
91.55389942788315,87.38961658135098,65.87915286560272,39033.33333333333
91.31520139668287,87.4816061853099,65.81601197156753,39066.66666666667
91.26212744731264,87.49911460281832,65.78580870432722,39100.0
91.33736463920656,87.03258779475763,65.48507236109705,39133.333333333336
91.0995284692998,87.11035339451401,65.18737007554633,39166.66666666666
91.69144325740778,87.10161761741585,65.69023382382585,39200.0
91.34131033778958,87.17751811409326,65.01234819879579,39233.333333333336
91.46587582414786,87.02280884861133,65.28658707328871,39266.66666666666
91.62226482617586,87.14542433537831,65.35851226993866,39300.0
91.9026825633383,87.7791604570293,65.89324391455538,39333.333333333336
92.15299938157082,87.75396413110703,66.47995052566482,39366.66666666666
91.80500440085504,87.60485351439709,65.96325914749151,39400.0
92.18737791134485,87.76351114450289,66.4748309541698,39433.33333333333
91.80816428750313,87.60450788880541,65.98497370398196,39466.66666666667
91.7947658402204,87.59719509140997,65.98179313799149,39500.0
91.6721881390593,87.0709100204499,65.79082310838446,39533.33333333333
91.4095772540217,87.48681880533735,65.82706073076443,39566.66666666667
91.70635162601627,87.33988821138212,65.72144308943089,39600.0
91.39748953974896,87.21208796816002,65.21588937646699,39633.333333333336
91.77532883940522,87.2240652376985,65.97732838496303,39666.66666666666
91.7769698805827,87.24469186296044,66.04360120174708,39700.0
91.27250828063835,87.36783599317474,65.526247114323,39733.333333333336
91.5942738131085,87.34874033925524,65.75757803874335,39766.66666666666
91.50825554551842,87.48464317976513,65.45435611763526,39800.0
91.83496103633236,87.4234895253517,65.760019228823,39833.333333333336
91.33785607005576,87.10060331441082,65.14003512969987,39866.66666666666
91.33732148766643,87.11748084413105,65.15100679683324,39900.0
91.78229448961157,87.40828565693064,65.95623808089933,39933.33333333333
91.54346663951328,87.31015961102769,65.29134740218416,39966.66666666667
91.83217791721485,87.46966400161926,65.64507640927033,40000.0
91.47832395692792,87.35256981391441,64.96881602728917,40033.33333333333
91.80697852760737,87.42027096114519,65.39915644171779,40066.66666666667
91.97694274028628,87.64810838445808,65.62160020449898,40100.0
91.79805513835501,87.74021841509052,65.50019092228189,40133.333333333336
92.36188618220088,87.6719716610622,66.10337038272968,40166.66666666666
92.13732322197173,87.656768805083,65.84248821479811,40200.0
92.41034044715448,87.64517276422764,66.33965955284553,40233.333333333336
92.18806294909422,87.55766116789799,66.00419997975914,40266.66666666666
92.1512245724117,87.60649225786864,65.95369901831799,40300.0
92.33694922258378,87.28735988429153,66.0422284208895,40333.333333333336
92.10827322432422,87.54393305439329,65.7267243370896,40366.66666666666
92.32876816943715,87.46742865870733,66.11760812565232,40400.0
91.9915899795501,87.71469836400819,65.71791922290389,40433.33333333333
92.14660548598083,87.70907062820056,66.27602291740608,40466.66666666667
92.18214774628606,87.70105967651979,66.32961517010597,40500.0
91.88351226993863,87.63553169734152,65.91523517382413,40533.33333333333
92.13661560169321,87.75216690183431,66.51877141705302,40566.66666666667
92.02550505050505,87.91737373737374,66.30563131313131,40600.0
92.17854974192896,87.67245218095336,66.45918935330432,40633.333333333336
91.670529298654,87.38864993421718,65.59277907094422,40666.66666666666
91.70387935360836,87.48549633644484,65.7375790424571,40700.0
92.00062732108805,87.43337850045168,66.06328415136004,40733.333333333336
91.92318072770892,87.63719512195122,65.94224810075971,40766.66666666666
92.16635845661736,87.68640043982407,66.22381047580967,40800.0
91.96341096919608,87.75186576508891,65.72324067117458,40833.333333333336
91.92576219512196,87.41438008130079,65.87322154471545,40866.66666666666
91.93302845528456,87.46006097560974,65.8598069105691,40900.0
91.43875255623722,87.28139059304705,65.29606339468303,40933.33333333333
91.66835378323108,87.33972392638037,65.7763036809816,40966.66666666667
91.5920195863937,87.252747825181,65.29856227535552,41000.0
92.02216837655308,87.3928184770841,65.92591637882147,41033.33333333333
91.57001756484993,87.26535651554106,65.59870681974391,41066.66666666667
91.51969045134028,87.29088918870758,65.5222106254614,41100.0
91.91627192098369,87.49944567627495,66.32380064503124,41133.333333333336
91.55925369396444,87.72479338842976,66.08507387928876,41166.66666666666
91.66276960290264,87.48475609756098,66.0089195726668,41200.0
91.26702235772358,87.39992378048781,65.33577235772357,41233.333333333336
91.59358097765079,87.27951831819574,65.32352791101133,41266.66666666666
91.58225329115216,87.31051637922238,65.3038320236759,41300.0
91.25949123392458,87.23395025284289,64.61922119259697,41333.333333333336
91.65945121951219,87.49690040650404,65.39108231707317,41366.66666666666
91.21854865621073,87.30839130323177,64.8014220807557,41400.0
91.63407012195124,87.50454776422764,65.68963414634146,41433.33333333333
91.27648432887544,87.47975973509254,65.20065713478964,41466.66666666667
91.11582310838446,87.3819018404908,65.10764314928426,41500.0
91.61968444778364,87.69261207112447,65.9000500876534,41533.33333333333
91.45212285456188,87.63324299909668,65.51871926126668,41566.66666666667
91.246289743655,87.25771962426495,65.29643866303489,41600.0
91.11172235461136,87.2636008720783,65.27379201946965,41633.333333333336
91.81338280766852,87.86436611008041,66.32106369820656,41666.66666666666
91.86520717377859,87.84925170068027,66.36803957946816,41700.0
91.56685372240929,87.66818805337324,65.76141663549072,41733.333333333336
92.17223454052723,88.17129834934714,66.78334565163833,41766.66666666666
91.57705326032853,87.82364360378298,66.08200597312096,41800.0
91.98375649740105,87.53963414634147,66.40331367453018,41833.333333333336
91.74095361855257,87.59251299480208,65.77314074370251,41866.66666666666
91.74217812874849,87.59783586565375,65.76266993202721,41900.0
92.01504233017536,87.45137069139288,65.98639387220318,41933.33333333333
91.69385162601624,87.21295731707319,65.28373983739837,41966.66666666667
91.84944105691055,87.27794715447155,65.37126524390243,42000.0
91.51363132432978,87.45134549485991,65.24430558355171,42033.33333333333
91.89550997782705,87.34607438016529,65.75602197137674,42066.66666666667
91.93495934959353,87.26173780487804,65.5725355691057,42100.0
91.5723699159282,87.28935342977606,65.46194046807544,42133.333333333336
92.12495001999201,87.43497600959616,66.06304978008797,42166.66666666666
92.10608544461004,87.65047193243916,65.99113263785395,42200.0
92.34270781483325,87.74255848680937,66.53058735689397,42233.333333333336
91.84803970973594,87.33833904454747,65.53449405361822,42266.66666666666
91.74987349458557,87.21333873089769,65.31029248051817,42300.0
92.01811630719614,87.33103204998993,65.61096553114291,42333.333333333336
91.65380520204836,87.34586523348375,64.98821173249506,42366.66666666666
91.85912151821243,87.32409958167534,65.19105193347617,42400.0
91.4319322618263,87.41312173604422,65.00367591137251,42433.33333333333
91.8894376133844,87.5276405966539,65.81598971981455,42466.66666666667
91.92768595041322,87.52214775246927,65.86471981455352,42500.0
91.49064036936666,87.74317474656229,65.58212887684432,42533.33333333333
91.8936675329868,87.79033386645342,66.27434026389443,42566.66666666667
91.69303985722784,88.06811421772754,66.49801705334127,42600.0
92.02114316874876,88.0786734086853,66.94291592306168,42633.333333333336
91.78504858219314,88.08350684116596,66.64477989292088,42666.66666666666
91.74893416617093,88.0968669442792,66.66275034701566,42700.0
92.40967216352324,88.3644465290807,67.30961785326355,42733.333333333336
91.63844462215114,87.79760595761695,66.1312475009996,42766.66666666666
91.91118552578968,87.87052678928428,66.39916533386645,42800.0
91.78111000497759,88.13967147834744,66.39733698357391,42833.333333333336
91.78297199638665,87.69906152765232,66.42986550235872,42866.66666666666
91.91583366653342,87.83019292283086,66.70166933226709,42900.0
91.48172184758913,87.45667494803024,65.61894742179182,42933.33333333333
91.72932616741876,87.37405567104395,66.06520306241444,42966.66666666667
91.56851553856986,87.70421401991352,65.97772302122095,43000.0
91.80771180854843,87.60163261167166,65.98816103026923,43033.33333333333
91.23044161638695,87.431729452923,65.41651878517467,43066.66666666667
91.28393961764631,87.42377109691216,65.3924852989843,43100.0
91.5913302532253,87.50395112221969,65.81880380721553,43133.333333333336
91.64769092363056,87.88707017193123,65.68530087964814,43166.66666666666
92.35684420109509,88.0580637132902,66.21202090592335,43200.0
91.90956284153006,87.85598609041232,65.8371087928465,43233.333333333336
92.40719389012071,88.28484848484848,66.56070460704608,43266.66666666666
92.21066171923313,88.04952380952379,66.30451453308595,43300.0
91.85392702535559,88.1517377860235,65.95581941867657,43333.333333333336
92.51322985957131,88.49241192411924,66.6220004927322,43366.66666666666
91.69335328594588,87.98079561042525,65.4086295049258,43400.0
91.98112779681514,87.86492138681717,65.53305785123968,43433.33333333333
91.68624380727468,87.65862361064764,64.8077624047026,43466.66666666667
91.78445121951219,87.84616361788618,65.11026422764228,43500.0
92.09495496407246,87.66076308065985,65.5433913571501,43533.33333333333
91.76608231707316,87.46849593495934,64.96504065040651,43566.66666666667
92.24728769173214,87.89332834518021,65.90906596832524,43600.0
92.04438224710115,87.86700319872051,65.7014694122351,43633.333333333336
92.17753769861349,87.5391154741423,65.60418985932598,43666.66666666666
92.22596250755896,87.64094940536181,65.77129107034872,43700.0
92.12380596084299,87.83339568524755,65.67315126574387,43733.333333333336
92.17301515607748,87.76422764227642,65.82776272207168,43766.66666666666
91.7795010626455,87.77021556522621,65.32681408764296,43800.0
91.93033514171272,87.51330933427978,65.67370582568574,43833.333333333336
91.71637486084404,87.66989677158182,65.48600850116385,43866.66666666666
91.78688897884831,87.6296933508754,65.5168505212023,43900.0
91.9679500100786,87.67456158032654,65.82155815359806,43933.33333333333
91.76141402942957,87.72339246119734,65.11139387220318,43966.66666666667
92.17607337230395,87.72649163475107,65.59816569240073,44000.0
92.05992000790043,88.34771874382777,65.81663539403516,44033.33333333333
92.08924611973393,87.88003930659141,65.49622052005644,44066.66666666667
92.05962059620596,87.90590183679615,65.5009535280538,44100.0
91.84930675032892,87.73616030766117,65.03015889080052,44133.33333333334
92.24198750251965,87.6016428139488,65.72767587180005,44166.66666666666
91.97980026096558,87.82718558667068,65.53977215698083,44200.0
92.2864675759266,87.71401409521879,65.69309942706485,44233.33333333334
92.21391649101679,88.17474656228045,65.62967981531668,44266.66666666666
92.21722874636154,88.17607648298706,65.6213489912677,44300.0
92.68964232488823,88.18258817685047,66.26877794336811,44333.33333333334
92.18076634109691,87.96045579764588,65.56528925619835,44366.66666666666
92.7127315049084,88.11456330330938,66.13179334075498,44400.0
92.26434571399656,88.14016799919037,65.67090881489727,44433.33333333333
92.60262119218704,88.03127213844752,66.40985224167595,44466.66666666667
92.64505110818745,88.01333367068109,66.53516850521203,44500.0
91.99095444466845,87.86277968151579,66.05160249949607,44533.33333333333
92.09638161196429,87.76580849141827,66.45874736525143,44566.66666666667
91.70955956460392,87.7257609352953,65.91765773029631,44600.0
92.08895567242676,87.9001001753068,66.4618582519409,44633.33333333334
91.64549226706906,87.92181566704392,65.70823588582925,44666.66666666666
91.7269696969697,88.02515151515152,65.63906565656566,44700.0
91.99012345679013,88.00568649457539,66.2895622895623,44733.33333333334
91.47227648384674,87.85111445028801,65.76671675432006,44766.66666666666
91.83324170331869,88.00519792083166,66.27913834466213,44800.0
91.32868877242493,87.82138177786737,65.48014513202983,44833.33333333334
91.61883918631716,87.72578686367777,65.80136119825929,44866.66666666666
91.63473926380371,87.6385736196319,65.66965746421268,44900.0
91.19003067484662,87.53172290388548,65.18673312883436,44933.33333333333
92.08669032387043,87.95676729308279,66.45989104358257,44966.66666666667
91.54403794037941,87.70839606544214,65.90758305731205,45000.0
91.62724333681236,87.33273935290077,65.72303540971922,45033.33333333333
91.757753688648,87.79140319180969,65.94073070360335,45066.66666666667
91.7670631335943,87.79268292682926,65.91852353708722,45100.0
92.65917327847977,88.58588010578902,67.174992653541,45133.33333333334
92.30837299226653,88.44502280388657,66.51445072377552,45166.66666666666
92.6209349593496,88.43674400158636,66.84515665278605,45200.0
92.01885564041572,88.14496056091149,65.8183297859021,45233.33333333334
92.15129417620706,88.11460925833748,66.01331508213039,45266.66666666666
92.11711531238262,87.99992487792662,65.89139852259922,45300.0
91.71544715447158,87.77619692863595,65.29479072568503,45333.33333333334
92.05140443822472,87.87512495002,66.05770191923229,45366.66666666666
91.61462410920406,87.84196527150455,65.58704707417445,45400.0
91.89732412819995,87.73150574480951,66.00965027212257,45433.33333333333
91.21619429092938,87.39273944126147,65.44790346296203,45466.66666666667
91.35375932271721,87.58972485386009,65.67408284620036,45500.0
91.75522980991651,87.60811626269738,65.95680378155487,45533.33333333333
91.7566044822837,87.73086265180919,65.81913108801804,45566.66666666667
91.98134262415108,87.50061854628999,65.99293089954303,45600.0
92.30808729139923,88.44117211415029,66.49725980053323,45633.33333333334
92.38675144680955,88.36380119718834,66.6439233998162,45666.66666666666
92.10444472267434,87.98399899837239,66.20796293977713,45700.0
92.68509188268223,89.31858342460752,67.24884994523549,45733.33333333334
92.61196892210856,88.84842151848937,67.14452202989771,45766.66666666666
92.06860995439224,88.49023398770572,66.4080656355344,45800.0
91.96536385445822,88.03251199520193,66.14816573370652,45833.33333333334
92.11716736069799,88.48205433273844,66.32222883204442,45866.66666666666
92.43206968470129,88.89233222917434,66.74138142559195,45900.0
92.29146341463414,88.01202090592335,66.57628173220508,45933.33333333333
91.45736725885777,87.54331024791729,65.45034126267188,45966.66666666667
91.9409656545545,87.78449477351916,66.18897461423593,46000.0
91.75978150406506,87.47792174796749,65.53503556910569,46033.33333333333
91.81778160105252,87.4402894443882,65.80619370509058,46066.66666666667
91.9787093495935,87.52029979674795,65.86951219512197,46100.0
91.35969757910549,87.41208665325969,65.23302700913881,46133.33333333334
91.7418496171982,87.48009937636263,65.82109719616693,46166.66666666666
91.49390243902441,87.56177858074881,65.72287463615379,46200.0
91.82168359650005,87.57213617620438,65.99391531730865,46233.33333333334
91.51329920706614,87.64599016360535,65.49335039646692,46266.66666666666
91.52022483187795,87.66895011542708,65.47533373481883,46300.0
91.80465313874451,87.86045581767294,65.83501599360254,46333.33333333334
91.6607606957217,87.88022291083567,65.58739004398241,46366.66666666666
91.95524290283886,87.81205017992802,66.125,46400.0
91.55632746901242,87.71239004398241,65.82089664134347,46433.33333333333
92.09042236763833,88.02042435058495,66.65970156652786,46466.66666666667
92.11330061471348,88.03765119968273,66.68124132460837,46500.0
91.80732220160792,87.99614100185529,66.34080395794682,46533.33333333333
92.04504728720757,87.75856147336981,66.65425584868092,46566.66666666667
91.9779645052548,88.04548383898474,66.65638013087448,46600.0
92.0235155937625,87.58534086365455,66.63479608156736,46633.33333333334
91.83697699781875,88.07770672218918,66.68362086059885,46666.66666666666
91.8078524687686,88.09602419194924,66.66832738449335,46700.0
91.8186475409836,87.72293582566972,66.51791783286686,46733.33333333334
91.41388136103585,87.5863946602429,65.82296998895914,46766.66666666666
91.67441040112878,87.4682523684741,65.97339246119735,46800.0
91.55118409067907,87.51181560570791,65.57873696994231,46833.33333333334
91.9866053169734,87.36308793456034,65.72832310838446,46866.66666666666
91.87562049741621,87.3028281954026,65.67701041162843,46900.0
91.35857186051201,87.48845998790567,65.10708526506752,46933.33333333333
92.09758586361372,88.06368840219014,66.13021403683425,46966.66666666667
91.55793163891323,87.80075122073369,65.54175535244772,47000.0
92.30399505256649,88.14456400742115,66.51200989486703,47033.33333333333
91.45014382811905,87.40964284805132,65.13494386884912,47066.66666666667
91.3616068019245,87.42298195148028,65.13428200493854,47100.0
92.20615803265473,87.76985486797018,66.14200765974601,47133.33333333334
91.95518600640551,88.17615176151762,66.0330869672333,47166.66666666666
91.97968206656729,87.84513164431198,66.17657724788873,47200.0
91.54749546462406,87.60239870993752,65.39004233017536,47233.33333333334
91.76446280991736,87.54558052811933,65.77018242289861,47266.66666666666
91.78177282805885,87.5800493852046,65.85965531142915,47300.0
91.55935386927123,87.7107688454796,65.6992486851991,47333.33333333334
91.8783638857713,87.66287567028309,66.14271106122959,47366.66666666666
91.40568494866017,87.4557225144002,65.69073378412222,47400.0
92.05931972789116,87.84539270253555,66.50194186765616,47433.33333333333
91.92481371087929,87.77272727272727,66.1287133631396,47466.66666666667
91.87454048683556,87.83529557873821,66.09627421758569,47500.0
92.19150521609535,87.63345752608048,66.48084947839047,47533.33333333333
91.88597081930416,87.76184062850729,66.11053747350043,47566.66666666667
92.13533549235909,87.44527375771683,66.2162736565125,47600.0
91.77494887525565,87.35467791411043,65.6967791411043,47633.33333333334
91.79942977878471,87.31318891123388,65.88682127128784,47666.66666666666
91.85202250337295,87.31593819209326,65.93829391848891,47700.0
91.7974956173303,87.86546456298521,66.09979964938643,47733.33333333334
91.57063635451168,87.46333935561579,65.8005871725384,47766.66666666666
91.62966247844295,88.17676767676771,66.07795023404779,47800.0
91.74280287884848,87.64529188324671,66.01496901239504,47833.33333333334
91.54131408661024,87.76998506719761,65.98061224489796,47866.66666666666
91.59046789447487,87.76443504230959,65.96356396217023,47900.0
91.76516893242704,87.6016093562575,66.19049880047979,47933.33333333333
91.43542582966812,87.73313174730106,65.82062175129947,47966.66666666667
91.54830372377798,87.46333935561579,65.82997089230152,48000.0
91.1793846776642,87.3253972270013,65.13164153425767,48033.33333333333
91.60128023479405,87.46918328104442,65.53795162432952,48066.66666666667
91.62858010322842,87.47902540228722,65.61129946361704,48100.0
91.46476409436224,87.65241403438624,65.52154138344662,48133.33333333334
91.80339757101277,87.46098062832479,65.86163806082506,48166.66666666666
91.58841463414636,87.54015893642544,65.70356857257097,48200.0
91.9279333534076,87.52208170229851,65.93463314262772,48233.33333333334
91.64365954862869,87.39849205545998,65.39087642951118,48266.66666666666
91.64252099989879,87.37812468373646,65.38224876024694,48300.0
92.11163883735314,87.61254174397034,66.49944341372914,48333.33333333334
91.30780084660351,87.01438722031848,65.26688167708122,48366.66666666666
91.68648278659435,86.97333062921463,65.63258632053946,48400.0
91.47545794960024,87.06466956785748,65.24686266572209,48433.33333333333
91.82445332586616,86.94773820736704,65.53577883562865,48466.66666666667
91.86943461548252,86.95397500190924,65.57594888374106,48500.0
91.39793641940882,86.99125386604473,65.24646351974853,48533.33333333333
91.69716287038904,87.19035980649063,65.94456762749446,48566.66666666667
91.43183085737465,87.08586421943924,65.596232824621,48600.0
91.75969248784462,87.1568617468116,66.03647888399563,48633.33333333334
91.3951731481012,87.1569233889368,65.44726968513918,48666.66666666666
91.42108198549916,87.16277949601988,65.41553009177103,48700.0
91.62325604737528,87.3063334337047,65.79315969085617,48733.33333333334
91.29584556219008,87.19074486388017,65.34325979151907,48766.66666666666
91.89377141705302,87.23984579721831,65.87487401733522,48800.0
91.58905450165614,87.2042557462612,65.51287262872629,48833.33333333334
91.73534577938372,87.23499447957441,65.7781541704306,48866.66666666666
91.81805179162905,87.21426779082606,65.84384723476865,48900.0
91.46424611973393,87.24082846200363,65.30913626285023,48933.33333333333
91.8963916491017,87.09991970290073,65.99851952223226,48966.66666666667
91.52616234852712,87.05143740810223,65.40523753992801,49000.0
91.92733319895184,87.44338339044548,65.84206813142511,49033.33333333333
91.4114287177911,87.07924798934481,64.78687054966447,49066.66666666667
91.51337728788536,87.22617926329454,64.98979202199425,49100.0
91.65989159891599,87.28610860182673,65.29928234467529,49133.33333333334
91.61299153807863,87.55818815331007,65.42424091587853,49166.66666666666
91.92782886845262,87.36248000799681,65.54575669732107,49200.0
91.56815216300312,87.21497039044466,65.18671584863996,49233.33333333334
91.73680116430792,87.10614272809393,65.85551540700592,49266.66666666666
91.84428728508594,87.28523590563775,66.12789884046381,49300.0
91.27625478734129,87.1007609352953,65.41435698447894,49333.33333333334
91.42774390243902,87.02220528455284,65.48213922764228,49366.66666666666
91.14299591002045,86.8903118609407,64.92111451942739,49400.0
91.36175869120657,86.89974437627814,65.19519427402865,49433.33333333333
91.26349564904896,87.10583463819083,64.81867186898376,49466.66666666667
91.20791875032222,87.00732071969892,64.67028406454607,49500.0
91.62637391259052,86.96611449705685,64.81317393342711,49533.33333333333
91.51075561077893,86.98837721001269,64.64023711527012,49566.66666666667
92.00194967245504,87.10543828636791,65.31930435686805,49600.0
91.367843933948,86.9492108141897,64.70844402771266,49633.33333333334
91.40617283950616,86.92620884773663,65.17803497942387,49666.66666666666
91.44945503383438,86.86437832532671,65.10036675448112,49700.0
91.3402726082604,87.23446363939729,65.1441076058218,49733.33333333334
91.82136412847349,87.2013455689024,65.47783162344693,49766.66666666666
91.2246322868804,86.95885206766434,64.77031085555869,49800.0
91.29199323805132,86.71197684544848,65.27431996311664,49833.33333333334
91.25670933373728,87.13668610669292,65.49791714004392,49866.66666666666
91.33362667203058,87.24844111435179,65.64957759227597,49900.0
91.55631295917593,87.08149662955387,65.97604079880834,49933.33333333333
91.22473761598135,87.09975662931602,65.39846879278001,49966.66666666667
91.36518404907976,86.9329243353783,65.4010736196319,50000.0
90.94850189649469,86.98867194460709,64.77735916299672,50033.33333333333
91.18079446252388,86.81943798749936,64.82695387158427,50066.66666666667
91.32397032887228,86.94304388422036,64.79689283120655,50100.0
90.83625187251408,86.87261738726174,64.31912805413502,50133.33333333334
91.65002023881806,87.31929265330903,65.59767759562844,50166.66666666666
91.04032751760023,86.94179165391287,64.58779716355474,50200.0
91.45256806773818,86.88538761851645,65.39829133498961,50233.33333333334
90.95198045267486,86.67188786008232,64.69375,50266.66666666666
90.95567484662577,86.78668200408998,64.82970347648262,50300.0
91.30874528643007,86.79169895139209,65.07298930729893,50333.33333333334
90.97080761316872,86.78701131687242,64.7746913580247,50366.66666666666
91.42154269115049,86.79645191409897,65.36935885465297,50400.0
91.03479876791486,87.0766234758038,65.31441081383804,50433.33333333333
91.09179857589264,86.83446032477846,65.32247323395318,50466.66666666667
91.09984119666001,86.84342502945545,65.33881460990729,50500.0
90.8056195891604,86.81322678141491,64.92994723630962,50533.33333333333
91.21041423718502,87.00337169801755,65.59937636262232,50566.66666666667
90.95025838148818,87.11073492350381,65.13013262734515,50600.0
91.25892349811457,86.99777881088897,65.05488403326618,50633.33333333334
91.13606850715746,87.32648261758692,64.856927402863,50666.66666666666
91.10710633946829,87.34460633946829,64.83680981595091,50700.0
91.76037085165932,87.57209616153538,65.74110355857657,50733.33333333334
91.48363154738104,87.53870951619352,65.17787884846062,50766.66666666666
91.64157382314563,87.46793134598013,65.33416139716952,50800.0
91.41343462614954,87.56789784086365,65.03663534586164,50833.33333333334
91.74289872528357,87.50286058416141,65.45488306734919,50866.66666666666
91.75087824952324,87.52930844123257,65.50777878149152,50900.0
91.33853958416631,87.74715113954419,65.0344112355058,50933.33333333333
91.61835568802782,87.78800298062593,65.71467958271235,50966.66666666667
91.22586357401173,87.6992393066467,65.11926674148897,51000.0
91.73849372384936,87.49535666904787,65.10656699663231,51033.33333333333
91.5736575117852,87.6377587620414,64.6923806107809,51066.66666666667
91.58101045296169,87.65238778438204,64.66653002664479,51100.0
91.84597253535559,87.56592027054724,65.14029514244723,51133.33333333334
91.29055646648905,87.42073170731706,64.57253023160484,51166.66666666666
91.67234576757532,87.33787661406026,65.32406743185079,51200.0
91.41232834597254,87.47978581676573,65.25420168067227,51233.33333333334
91.46779172148571,87.46404716121849,65.55275275781804,51266.66666666666
91.54718651958305,87.4588604392268,65.66190162938973,51300.0
91.33531607765056,87.64644101543054,65.57804878048779,51333.33333333334
91.73796051804352,87.64270086759714,65.75133911731422,51366.66666666666
91.36094555513641,87.77555639381364,65.28484848484848,51400.0
91.5191084397696,87.47828700225395,65.79531680440772,51433.33333333333
91.11491361788616,87.4021849593496,65.055081300813,51466.66666666667
91.11166158536585,87.41028963414635,65.01951219512196,51500.0
91.52535787321064,87.3098926380368,65.4510736196319,51533.33333333333
90.9864063335285,87.25519945014383,64.92752590178958,51566.66666666667
91.28763078176313,87.04230837766974,65.30063895323677,51600.0
91.39179369918699,87.52594004065041,65.38180894308942,51633.33333333334
91.57510718528849,87.0517846996229,65.46515832429361,51666.66666666666
91.54199897750513,87.10319529652351,65.60633946830266,51700.0
91.34856380111404,87.2026336730241,65.38901866160126,51733.33333333334
91.66880081300812,87.323043699187,65.73785569105691,51766.66666666666
91.38771379415041,87.31234186823194,65.35957898998079,51800.0
91.61051781160849,87.21681940973009,65.70062359564746,51833.33333333334
91.23741317243828,87.39748009937637,65.11473913704812,51866.66666666666
91.21738579323632,87.43330122192364,65.0885514374081,51900.0
91.6824901941064,87.42952328271143,65.99341245097054,51933.33333333333
91.166229666777,87.2307868543645,65.30679937886617,51966.66666666667
91.41469350504488,87.10376210515642,65.80018252801297,52000.0
91.07496324088629,87.2952644121077,65.38282715611216,52033.33333333333
91.3696677707518,87.64290374385227,66.03314764629128,52066.66666666667
91.34940032251562,87.518191896795,66.01010380971579,52100.0
91.10968081903042,87.68814614072065,65.6852102780287,52133.33333333334
91.51471911235504,87.74597660935629,66.3218462614954,52166.66666666666
91.06937556927437,87.44266774617954,65.60188746078332,52200.0
91.51436925229908,87.65281387445023,66.36245501799279,52233.33333333334
91.30092962814872,87.68600059976009,66.02116653338665,52266.66666666666
91.28628548580568,87.68949920031989,66.00947121151539,52300.0
91.55765088905585,87.63551214625595,66.16704232406714,52333.33333333334
91.27111655337863,87.6686075569772,65.8608056777289,52366.66666666666
91.56984478935699,87.44287945978634,66.12507558959888,52400.0
91.13863796045368,87.50873230954531,65.73278630934458,52433.33333333333
91.47264952939986,87.41779678170225,65.74617953648415,52466.66666666667
91.43663617886179,87.32525406504067,65.64522357723577,52500.0
90.91502685640098,87.22388819591173,65.04266476592929,52533.33333333333
91.17870654396728,87.21372699386505,65.33435582822086,52566.66666666667
91.01325863205395,87.36454900370127,65.21852659331745,52600.0
91.5355565592693,87.49460503864296,66.10699588477367,52633.33333333334
91.07534662483556,87.29764193907499,65.43173767837264,52666.66666666666
90.92632945548964,87.18967492299468,65.19537713514752,52700.0
91.28136968353157,87.39664382181013,65.81747631525901,52733.33333333334
91.17632113821138,87.5576981707317,65.60721544715446,52766.66666666666
91.51754298280687,87.66598360655738,66.20294382247101,52800.0
91.30712058860209,87.59134555430849,65.71607432348172,52833.33333333334
91.6546131547381,87.59138844462215,66.03303678528589,52866.66666666666
91.67680427828869,87.60888144742106,66.10830667732907,52900.0
91.31962215113954,87.68455117952819,65.68200219912035,52933.33333333333
91.50844083854065,87.55258516428141,65.8698347107438,52966.66666666667
91.36450147974286,87.58128380446985,65.49306051637922,53000.0
91.70700833590614,87.51692909334156,65.81884841000308,53033.33333333333
91.17142636616242,87.37174539466913,65.17533703818053,53066.66666666667
91.24787353965976,87.48301393728224,65.2949887271982,53100.0
91.66335000257773,87.30752178171879,65.64842501417746,53133.33333333334
91.31295454545456,87.57300505050505,65.50936868686868,53166.66666666666
91.25979038854805,87.12075664621678,65.26459611451943,53200.0
91.14644224954651,87.35806792985285,65.30931263858093,53233.33333333334
91.71423248882263,87.86259314456034,66.2438648782911,53266.66666666666
91.76969696969697,87.88358171882761,66.25417287630404,53300.0
91.37865070457664,87.80451427858836,65.71103628881407,53333.33333333334
91.42768595041322,87.42750957468252,65.70207619431567,53366.66666666666
91.17585775106436,87.65997996493864,65.46937139994992,53400.0
91.5608506597361,87.73795481807275,66.04455717712915,53433.33333333333
91.37565510985688,87.47175468655512,65.45769502116511,53466.66666666667
91.29755093847237,87.48810599217104,65.49974907156479,53500.0
91.67968985245408,87.38100973602329,65.82013449764128,53533.33333333333
91.51038843721771,87.50637358225435,65.37378299708924,53566.66666666667
91.65774340670237,87.9651249256395,65.58623339282174,53600.0
91.5038576406172,87.8634892981583,65.40813837730214,53633.33333333334
92.1081514762516,88.25713439320627,66.24772884368521,53666.66666666666
92.18665194454668,88.37112010796221,66.42196049564471,53700.0
91.54270871985159,87.8648113790971,65.63277674706248,53733.33333333334
91.73380647740903,87.66473410635746,65.61390443822471,53766.66666666666
91.46568872451022,87.74530187924829,65.35418332666933,53800.0
91.43352086144137,87.25359570297584,64.81984573479622,53833.33333333334
91.3139611375367,87.41316668353407,64.59880072867121,53866.66666666666
91.25027947154473,87.34766260162601,64.44507113821139,53900.0
91.60935582822088,87.21991308793457,65.02195807770961,53933.33333333333
91.60846994535521,87.7897913561848,65.64627421758571,53966.66666666667
92.00987654320987,87.57461030053624,66.12203516647962,54000.0
91.46406974400324,87.35481757710139,65.1681364644225,54033.33333333333
91.58744887525565,87.0107617586912,65.24422290388549,54066.66666666667
91.61244887525562,87.05276073619629,65.30516359918201,54100.0
90.94851738241309,86.97096114519428,64.59792944785275,54133.33333333334
91.27264826175869,86.96408486707567,65.00268404907976,54166.66666666666
91.0995654396728,87.01285787321062,64.91359918200409,54200.0
91.67079933040384,86.83631512868801,64.95242205482319,54233.33333333334
91.16979182809028,86.98935895449145,64.7603956815951,54266.66666666666
91.1779017511235,86.9901079601219,64.7723281161217,54300.0
91.3567901234568,86.76064814814815,65.16597222222222,54333.33333333334
91.34441223510595,87.5328868452619,65.57142143142742,54366.66666666666
91.86121852072179,87.7690610747571,66.27302696807456,54400.0
91.76521310667653,88.01465878295147,66.24764720374475,54433.33333333333
91.57813444869986,87.32390143116308,65.59657831082443,54466.66666666667
91.76450929043524,87.53904476867443,65.92081306896122,54500.0
91.45453617716095,87.38542198183487,65.00466884375957,54533.33333333333
91.90818237020544,87.4898036635968,65.86261511992713,54566.66666666667
91.86200466200468,88.15325726904675,66.42581278370753,54600.0
91.78021026592457,87.74186765615337,66.14686456400743,54633.33333333334
91.63471298349349,87.95173688100517,65.93163340724317,54666.66666666666
91.53429808286951,87.82191713048857,65.75198515769945,54700.0
91.69177844013909,87.675608544461,65.75596125186289,54733.33333333334
91.38388888888888,87.54424242424244,65.05032828282829,54766.66666666666
91.57321765371559,87.5045391676097,65.42517289073305,54800.0
91.06656714907398,87.31914785952839,64.76563606922376,54833.33333333334
91.43100394696891,87.30639611375366,65.29741422932902,54866.66666666666
91.45478696488208,87.33275984212126,65.3111527173363,54900.0
91.38015657934359,87.4853206865402,65.34783699688849,54933.33333333333
91.49574178593029,87.29696633743197,65.51194315662164,54966.66666666667
91.42692168892096,87.40016497396505,64.90642882920041,55000.0
91.697290539851,87.53699357077255,65.62485967955915,55033.33333333333
91.09794207317071,87.35894308943091,65.04014227642277,55066.66666666667
90.90929561785244,87.32124784940795,64.93396417366664,55100.0
91.22278409528454,87.11743717432041,65.11163590625561,55133.33333333334
91.08353783231085,87.21252556237219,65.0792689161554,55166.66666666666
91.44690299561054,87.11053212516363,65.23407859948148,55200.0
91.22967791411043,87.29153885480572,64.80516359918201,55233.33333333334
91.54308479494944,87.16992083089376,65.25257745080569,55266.66666666666
91.60489270167757,87.18112160476541,65.2688694855281,55300.0
91.19386503067484,87.06395705521473,64.76193762781186,55333.33333333334
91.59942706484816,87.03544085585358,65.22973178522537,55366.66666666666
91.50130939019829,87.52143658810326,65.26517022072578,55400.0
91.52204696633743,87.33589498085064,65.23654505140092,55433.33333333333
91.29097661346985,87.50531968282647,65.01292281441333,55466.66666666667
91.30347284954331,87.50531968282647,64.98800562079695,55500.0
91.65919169522276,87.25554323725054,65.65019653295707,55533.33333333333
91.19938016528928,87.18980548276558,65.19396291070349,55566.66666666667
91.4322662601626,87.08724593495936,65.27578760162602,55600.0
91.02074688796681,87.05361097675836,64.55331822925947,55633.33333333334
91.44107605821804,87.11810457684112,64.98013194034448,55666.66666666666
91.43085966578535,87.14960084195394,64.97109633698693,55700.0
91.26206755791408,87.36335340340851,65.00275538320237,55733.33333333334
91.69974437627813,87.2635736196319,65.41822597137015,55766.66666666666
91.2566035826333,87.26978544681712,65.05589009209594,55800.0
91.50286467575928,87.19545708056586,65.24063276377834,55833.33333333334
91.21774843781496,87.41997581132836,65.08987603305785,55866.66666666666
91.1752522435735,87.31574811134209,64.94752319626832,55900.0
91.5237793439132,87.22879379404756,65.41094154033361,55933.33333333333
91.2909509202454,87.20575153374233,64.71316462167691,55966.66666666667
91.5218287808976,87.12600870605606,65.35888297736936,56000.0
91.02949897750513,87.01638548057258,64.88412576687115,56033.33333333333
91.70776843646645,87.36327602312605,65.78913883208361,56066.66666666667
91.73175771013908,87.34075791171135,65.79744507155816,56100.0
91.44996563398928,87.32525519945015,65.31738920143573,56133.33333333334
91.64822795720731,87.27080058814579,65.61032804340111,56166.66666666666
91.16740797546012,87.15306748466257,64.93744887525563,56200.0
91.5808700501952,87.20412716118238,65.58715712619784,56233.33333333334
91.27803375505944,87.14034060535091,65.14555914772293,56266.66666666666
91.15651840490796,87.00143149284254,64.95912576687118,56300.0
91.32446605401829,87.08301300817148,65.30944683450856,56333.33333333334
91.11265369885105,87.35383491231606,65.18995666196331,56366.66666666666
91.34164905938955,87.13194002494718,65.30481378713439,56400.0
91.3045267489712,87.47736625514402,65.08265798177182,56433.33333333332
91.58794718372087,87.24287409427151,65.63796106945391,56466.66666666668
91.73677699512736,87.3843570905602,65.86806028932818,56500.0
91.2797099267289,87.2757703502961,65.45370370370371,56533.33333333332
91.30320817730998,86.97864588604394,65.40889080052628,56566.66666666668
91.02676854569376,87.11476571197247,65.17409675134095,56600.0
91.53292682926828,87.0378556910569,65.60790142276423,56633.33333333334
91.06807259713702,86.81894171779142,65.04723926380369,56666.66666666666
91.1203694254516,86.96308296764977,65.16244004490254,56700.0
91.39695377079296,87.03316664965813,65.43121747117053,56733.33333333334
91.0112688348692,87.11030110121416,64.92119516389866,56766.66666666666
91.24330265848671,87.07198364008181,65.34856850715747,56800.0
90.99184451219513,87.18239329268293,65.14296239837398,56833.33333333334
91.0810123982853,86.98215981723439,65.28431347383012,56866.66666666666
91.1082218856688,86.97569114664888,65.300844520882,56900.0
91.05056931505466,87.4573960463531,65.41558736650761,56933.33333333332
91.50183177757704,87.60797450567098,66.28229448961156,56966.66666666668
90.87185043338036,87.38623765369888,65.52003124370087,57000.0
91.36779215627944,87.75514403292179,66.19420893450345,57033.33333333332
90.91130820399113,87.40566418060875,65.27794295504938,57066.66666666668
90.73206300813007,87.17400914634146,64.96107723577236,57100.0
91.2266724015788,87.24291569679183,65.57175387106568,57133.33333333334
91.35180927628949,87.69984506197521,66.07619452219113,57166.66666666666
91.51819231155277,87.4404546823246,66.09655726186891,57200.0
91.26964688204357,87.60140245429503,65.66301026796894,57233.33333333334
91.42477165512396,87.55495332731104,65.72355214292885,57266.66666666666
91.529977460556,87.63538692712245,65.84194840971699,57300.0
91.35327868852457,87.93107302533531,65.77006954793839,57333.33333333334
91.64120715350224,87.90186289120716,65.91885245901639,57366.66666666666
91.08584261768543,87.49786710830071,65.05136505068755,57400.0
91.875224910036,87.46303978408636,65.97860855657737,57433.33333333332
91.33290675499347,87.30736224028904,65.22882164006826,57466.66666666668
91.34580447656329,87.28954632138914,65.27190605239386,57500.0
91.57855986236211,87.19112438012347,65.47530614310293,57533.33333333332
91.23006274668556,87.25506021657726,65.2418530513106,57566.66666666668
91.39474749519279,87.24681206355629,65.60641635461998,57600.0
90.92255235004816,87.31174263550173,65.11144349236932,57633.33333333334
91.35674086092381,87.21556051310652,65.46537037975969,57666.66666666666
91.5946123355803,87.494786538413,65.78111035370749,57700.0
91.43852459016394,87.76996379362366,65.58654329679172,57733.33333333334
92.2924102716637,88.30767896093596,66.73562363672417,57766.66666666666
91.87620103473762,88.59327420546933,66.11670362158166,57800.0
91.49655381352724,87.59951021232548,65.45229619530916,57833.33333333334
91.66807668521956,88.41167594310456,66.059146567718,57866.66666666666
91.63371675943104,88.43732838589982,66.03171304885589,57900.0
91.13144171779142,87.07778629856851,64.98696319018406,57933.33333333332
91.0438973788078,87.37602469385689,64.75035421516041,57966.66666666668
91.21372699386505,86.9486707566462,64.63617075664622,58000.0
91.12964895756431,87.13934780948502,64.51981773286154,58033.33333333332
91.32191358024693,86.81082818930041,64.66887860082305,58066.66666666668
91.57892727133877,87.14774838988876,65.07647073797825,58100.0
91.43297165745577,87.36074633676421,65.10284946509152,58133.33333333334
91.39625283201386,87.10796018634016,65.3110251253723,58166.66666666666
90.80245398773006,87.12144683026585,64.78118609406953,58200.0
91.26682046341836,87.30472037722456,65.29303351417127,58233.33333333334
91.20174770106182,87.4308540364782,65.1273941980389,58266.66666666666
91.19905502210028,87.43326728649087,65.13567545597724,58300.0
91.4905901836796,87.55068754391247,65.70111914082104,58333.33333333334
91.11355125999391,87.2874456026718,65.24802651553486,58366.66666666666
91.43389570552151,87.07701942740286,65.24028629856849,58400.0
91.09156441717792,87.02983128834356,64.56958077709612,58433.33333333332
