Time[ms],HR[bpm]
833,82.23351
867,82.23351
900,82.23351
933,82.23351
967,82.23351
1000,82.23351
1033,82.23351
1067,83.72093000000002
1100,83.72093000000002
1133,83.72093000000002
1167,83.72093000000002
1200,83.72093000000002
1233,83.72093000000002
1267,83.72093000000002
1300,83.72093000000002
1333,83.72093000000002
1367,83.72093000000002
1400,86.17021
1433,86.17021
1467,86.17021
1500,83.23699
1533,83.23699
1567,83.23699
1600,83.23699
1633,83.23699
1667,83.23699
1700,83.23699
1733,83.23699
1767,83.23699
1800,83.23699
1833,83.23699
1867,85.13513
1900,85.13513
1933,85.13513
1967,85.13513
2000,85.13513
2033,85.13513
2067,85.13513
2100,77.00535
2133,77.00535
2167,77.00535
2200,77.00535
2233,86.63101999999998
2267,86.63101999999998
2300,86.63101999999998
2333,86.63101999999998
2367,86.63101999999998
2400,86.63101999999998
2433,86.63101999999998
2467,86.63101999999998
2500,86.63101999999998
2533,86.63101999999998
2567,86.63101999999998
2600,86.63101999999998
2633,86.63101999999998
2667,86.63101999999998
2700,88.34356
2733,88.34356
2767,88.52459
2800,88.52459
2833,88.52459
2867,88.52459
2900,88.52459
2933,88.52459
2967,88.52459
3000,88.52459
3033,88.52459
3067,88.52459
3100,88.52459
3133,88.52459
3167,88.52459
3200,88.52459
3233,88.52459
3267,88.52459
3300,88.52459
3333,88.52459
3367,88.52459
3400,88.52459
3433,88.66995
3467,88.66995
3500,90.0
3533,90.0
3567,90.0
3600,90.0
3633,90.0
3667,90.0
3700,90.0
3733,90.0
3767,90.0
3800,90.0
3833,90.0
3867,90.0
3900,90.0
3933,90.0
3967,90.0
4000,90.0
4033,90.0
4067,90.0
4100,90.0
4133,90.0
4167,90.0
4200,90.0
4233,90.0
4267,90.0
4300,90.0
4333,90.0
4367,90.0
4400,90.0
4433,90.0
4467,90.0
4500,90.0
4533,90.0
4567,90.0
4600,90.0
4633,90.0
4667,90.0
4700,90.0
4733,90.0
4767,90.0
4800,90.0
4833,90.0
4867,90.0
4900,88.23529
4933,88.52459
4967,88.52459
5000,88.52459
5033,88.52459
5067,88.52459
5100,88.52459
5133,88.52459
5167,88.52459
5200,88.52459
5233,88.52459
5267,88.52459
5300,88.52459
5333,88.52459
5367,88.52459
5400,88.52459
5433,88.52459
5467,88.52459
5500,88.52459
5533,88.52459
5567,88.52459
5600,88.52459
5633,88.34356
5667,87.09676999999998
5700,87.09676999999998
5733,87.09676999999998
5767,87.09676999999998
5800,87.09676999999998
5833,87.09676999999998
5867,87.09676999999998
5900,87.09676999999998
5933,87.09676999999998
5967,87.09676999999998
6000,87.09676999999998
6033,87.09676999999998
6067,87.09676999999998
6100,87.09676999999998
6133,87.09676999999998
6167,87.09676999999998
6200,87.09676999999998
6233,87.09676999999998
6267,87.09676999999998
6300,86.74699
6333,86.74699
6367,86.74699
6400,86.74699
6433,86.74699
6467,86.74699
6500,86.74699
6533,86.74699
6567,86.74699
6600,86.74699
6633,86.74699
6667,86.74699
6700,86.74699
6733,81.81818
6767,81.81818
6800,81.81818
6833,81.81818
6867,81.81818
6900,82.23351
6933,82.23351
6967,81.35593
7000,81.35593
7033,81.35593
7067,80.89888
7100,80.89888
7133,80.89888
7167,80.89888
7200,80.89888
7233,80.89888
7267,80.89888
7300,80.89888
7333,80.89888
7367,80.89888
7400,80.89888
7433,80.89888
7467,81.0
7500,80.89888
7533,80.59702
7567,81.0
7600,81.0
7633,79.55801
7667,79.55801
7700,79.55801
7733,79.55801
7767,79.55801
7800,79.55801
7833,79.55801
7867,79.55801
7900,79.55801
7933,79.55801
7967,79.55801
8000,79.55801
8033,79.55801
8067,79.55801
8100,79.55801
8133,79.55801
8167,79.55801
8200,79.55801
8233,79.55801
8267,78.26087
8300,78.26087
8333,78.26087
8367,78.26087
8400,78.26087
8433,78.26087
8467,78.26087
8500,75.0
8533,75.0
8567,75.0
8600,75.0
8633,75.0
8667,75.0
8700,75.0
8733,75.0
8767,75.0
8800,75.0
8833,75.0
8867,75.0
8900,75.0
8933,73.25581
8967,73.25581
9000,73.25581
9033,73.25581
9067,73.25581
9100,73.25581
9133,73.25581
9167,73.25581
9200,73.25581
9233,73.25581
9267,73.25581
9300,73.25581
9333,73.25581
9367,73.25581
9400,73.25581
9433,73.25581
9467,73.25581
9500,73.25581
9533,73.25581
9567,70.58823000000002
9600,68.47825999999999
9633,68.47825999999999
9667,68.47825999999999
9700,68.47825999999999
9733,68.47825999999999
9767,68.47825999999999
9800,68.47825999999999
9833,68.47825999999999
9867,68.47825999999999
9900,68.47825999999999
9933,68.47825999999999
9967,68.47825999999999
10000,68.47825999999999
10033,68.47825999999999
10067,68.47825999999999
10100,68.47825999999999
10133,68.47825999999999
10167,68.47825999999999
10200,68.47825999999999
10233,68.47825999999999
10267,65.85365999999999
10300,67.74194
10333,67.74194
10367,67.74194
10400,67.74194
10433,67.74194
10467,67.74194
10500,67.74194
10533,67.74194
10567,67.74194
10600,67.74194
10633,67.74194
10667,67.74194
10700,67.74194
10733,67.74194
10767,67.74194
10800,67.74194
10833,67.74194
10867,67.74194
10900,67.74194
10933,66.66666
10967,66.66666
11000,66.66666
11033,66.66666
11067,68.10811
11100,68.10811
11133,68.10811
11167,68.10811
11200,68.10811
11233,68.10811
11267,68.10811
11300,68.10811
11333,68.10811
11367,68.10811
11400,68.10811
11433,68.10811
11467,68.10811
11500,68.10811
11533,68.10811
11567,68.10811
11600,68.10811
11633,68.10811
11667,68.10811
11700,68.10811
11733,66.66666
11767,66.66666
11800,66.66666
11833,66.66666
11867,66.66666
11900,67.37968000000001
11933,67.37968000000001
11967,67.37968000000001
12000,67.37968000000001
12033,67.37968000000001
12067,67.37968000000001
12100,67.37968000000001
12133,67.37968000000001
12167,67.37968000000001
12200,67.37968000000001
12233,67.37968000000001
12267,67.37968000000001
12300,67.37968000000001
12333,67.37968000000001
12367,67.37968000000001
12400,67.37968000000001
12433,67.37968000000001
12467,67.37968000000001
12500,69.23076999999999
12533,69.23076999999999
12567,69.23076999999999
12600,68.78981
12633,68.78981
12667,68.78981
12700,68.78981
12733,68.78981
12767,68.78981
12800,68.78981
12833,68.78981
12867,68.78981
12900,68.78981
12933,68.78981
12967,68.47825999999999
13000,68.47825999999999
13033,68.47825999999999
13067,68.47825999999999
13100,68.47825999999999
13133,70.0
13167,70.39106
13200,70.39106
13233,70.39106
13267,70.39106
13300,70.39106
13333,70.39106
13367,70.39106
13400,70.39106
13433,70.39106
13467,70.39106
13500,71.05264
13533,71.05264
13567,71.05264
13600,71.05264
13633,71.05264
13667,71.05264
13700,71.05264
13733,71.05264
13767,67.74194
13800,71.05264
13833,67.02128
13867,67.02128
13900,67.02128
13933,67.02128
13967,67.02128
14000,67.02128
14033,67.02128
14067,67.02128
14100,67.02128
14133,67.02128
14167,67.02128
14200,67.02128
14233,67.02128
14267,67.02128
14300,67.02128
14333,67.02128
14367,67.02128
14400,67.5
14433,67.5
14467,67.5
14500,67.5
14533,67.5
14567,67.5
14600,67.5
14633,67.5
14667,67.5
14700,67.5
14733,67.5
14767,67.5
14800,67.5
14833,67.5
14867,67.5
14900,67.5
14933,65.28497
14967,65.28497
15000,65.28497
15033,65.28497
15067,65.28497
15100,65.28497
15133,65.28497
15167,65.28497
15200,65.28497
15233,65.28497
15267,65.28497
15300,65.28497
15333,66.25766999999999
15367,66.25766999999999
15400,66.25766999999999
15433,66.25766999999999
15467,66.25766999999999
15500,66.25766999999999
15533,66.25766999999999
15567,66.25766999999999
15600,66.25766999999999
15633,66.25766999999999
15667,66.25766999999999
15700,66.25766999999999
15733,66.25766999999999
15767,66.25766999999999
15800,66.25766999999999
15833,66.25766999999999
15867,66.25766999999999
15900,66.25766999999999
15933,66.25766999999999
15967,64.94846
16000,64.94846
16033,64.94846
16067,64.94846
16100,64.94846
16133,64.94846
16167,64.94846
16200,64.94846
16233,64.94846
16267,64.94846
16300,64.94846
16333,63.905330000000006
16367,63.905330000000006
16400,63.905330000000006
16433,63.905330000000006
16467,63.905330000000006
16500,63.905330000000006
16533,63.905330000000006
16567,63.905330000000006
16600,63.905330000000006
16633,63.905330000000006
16667,63.905330000000006
16700,63.905330000000006
16733,63.905330000000006
16767,63.905330000000006
16800,63.905330000000006
16833,63.905330000000006
16867,64.28571
16900,64.28571
16933,64.28571
16967,64.28571
17000,64.28571
17033,64.28571
17067,64.28571
17100,64.28571
17133,64.28571
17167,62.42775
17200,62.42775
17233,62.42775
17267,52.02312
17300,52.02312
17333,52.02312
17367,52.02312
17400,52.02312
17433,52.02312
17467,52.02312
17500,52.02312
17533,52.02312
17567,52.02312
17600,52.02312
17633,52.02312
17667,52.02312
17700,52.02312
17733,52.02312
17767,52.02312
17800,52.02312
17833,53.46535
17867,53.46535
17900,53.46535
17933,51.13636
17967,50.84746
18000,50.84746
18033,50.84746
18067,50.84746
18100,50.84746
18133,50.84746
18167,50.84746
18200,50.84746
18233,51.13636
18267,51.13636
18300,51.13636
18333,51.13636
18367,51.13636
18400,51.13636
18433,51.13636
18467,51.13636
18500,51.13636
18533,51.13636
18567,51.13636
18600,51.13636
18633,51.13636
18667,51.13636
18700,51.13636
18733,51.13636
18767,51.13636
18800,60.40268
18833,60.40268
18867,60.40268
18900,60.40268
18933,60.40268
18967,60.40268
19000,60.40268
19033,60.40268
19067,60.40268
19100,60.40268
19133,60.40268
19167,60.40268
19200,60.40268
19233,59.01639
19267,59.01639
19300,59.01639
19333,60.0
19367,60.0
19400,60.0
19433,60.0
19467,60.0
19500,60.0
19533,60.0
19567,60.0
19600,60.0
19633,60.40268
19667,60.40268
19700,60.40268
19733,60.40268
19767,60.40268
19800,60.40268
19833,60.40268
19867,60.40268
19900,59.34066
19933,59.34066
19967,59.34066
20000,59.34066
20033,59.34066
20067,59.34066
20100,59.34066
20133,59.34066
20167,59.34066
20200,59.34066
20233,59.34066
20267,59.34066
20300,59.34066
20333,59.34066
20367,59.34066
20400,59.34066
20433,59.34066
20467,59.34066
20500,59.34066
20533,59.34066
20567,59.34066
20600,59.34066
20633,59.34066
20667,60.40268
20700,60.40268
20733,60.40268
20767,60.40268
20800,60.40268
20833,61.01695
20867,61.01695
20900,61.01695
20933,61.01695
20967,61.01695
21000,61.01695
21033,61.01695
21067,61.01695
21100,61.01695
21133,61.01695
21167,61.01695
21200,61.01695
21233,61.01695
21267,61.01695
21300,61.01695
21333,61.01695
21367,61.01695
21400,61.01695
21433,61.01695
21467,61.01695
21500,61.01695
21533,61.01695
21567,61.01695
21600,61.01695
21633,61.01695
21667,61.01695
21700,61.01695
21733,61.01695
21767,61.64384
21800,61.64384
21833,61.36364
21867,61.36364
21900,61.36364
21933,61.36364
21967,61.36364
22000,61.36364
22033,61.36364
22067,61.36364
22100,61.36364
22133,61.36364
22167,61.36364
22200,61.36364
22233,61.36364
22267,61.36364
22300,61.36364
22333,61.36364
22367,61.36364
22400,61.36364
22433,61.36364
22467,61.36364
22500,61.36364
22533,61.36364
22567,61.36364
22600,61.36364
22633,61.36364
22667,61.36364
22700,61.36364
22733,61.36364
22767,61.36364
22800,60.40268
22833,60.40268
22867,60.40268
22900,60.40268
22933,60.40268
22967,60.40268
23000,58.69565
23033,58.69565
23067,58.69565
23100,58.37838000000001
23133,58.37838000000001
23167,58.37838000000001
23200,58.37838000000001
23233,58.37838000000001
23267,58.37838000000001
23300,58.37838000000001
23333,58.37838000000001
23367,58.37838000000001
23400,58.37838000000001
23433,58.37838000000001
23467,58.37838000000001
23500,58.37838000000001
23533,58.37838000000001
23567,58.37838000000001
23600,58.37838000000001
23633,58.37838000000001
23667,58.37838000000001
23700,57.69231
23733,57.69231
23767,57.69231
23800,57.69231
23833,57.69231
23867,57.69231
23900,57.69231
23933,57.69231
23967,57.69231
24000,57.69231
24033,57.69231
24067,57.75401
24100,57.75401
24133,57.75401
24167,57.75401
24200,57.75401
24233,57.75401
24267,57.75401
24300,57.75401
24333,57.75401
24367,57.75401
24400,57.75401
24433,57.75401
24467,57.75401
24500,57.75401
24533,57.75401
24567,57.75401
24600,57.75401
24633,57.75401
24667,56.96202
24700,56.96202
24733,56.96202
24767,56.96202
24800,56.96202
24833,56.96202
24867,56.96202
24900,56.96202
24933,56.96202
24967,56.96202
25000,56.96202
25033,56.96202
25067,56.96202
25100,57.14286
25133,57.14286
25167,57.14286
25200,57.14286
25233,57.14286
25267,57.14286
25300,57.14286
25333,57.14286
25367,57.14286
25400,57.14286
25433,57.14286
25467,57.14286
25500,57.14286
25533,57.14286
25567,57.14286
25600,57.14286
25633,57.32484
25667,57.32484
25700,57.32484
25733,57.32484
25767,57.32484
25800,57.32484
25833,57.32484
25867,57.32484
25900,57.32484
25933,57.32484
25967,57.32484
26000,57.32484
26033,57.32484
26067,57.32484
26100,57.32484
26133,57.44681
26167,57.44681
26200,57.44681
26233,57.44681
26267,57.44681
26300,57.44681
26333,57.44681
26367,57.44681
26400,57.44681
26433,57.44681
26467,57.44681
26500,57.44681
26533,57.44681
26567,57.44681
26600,57.44681
26633,57.44681
26667,57.44681
26700,56.25
26733,56.25
26767,56.25
26800,56.25
26833,56.25
26867,56.25
26900,56.25
26933,56.25
26967,56.25
27000,56.25
27033,56.25
27067,56.25
27100,56.25
27133,56.25
27167,56.25
27200,56.25
27233,56.25
27267,56.25
27300,56.25
27333,56.25
27367,56.25
27400,56.25
27433,56.25
27467,56.25
27500,56.25
27533,56.25
27567,56.25
27600,56.25
27633,55.90062
27667,55.90062
27700,55.90062
27733,55.90062
27767,55.90062
27800,55.90062
27833,55.90062
27867,55.90062
27900,55.90062
27933,55.90062
27967,55.90062
28000,58.37838000000001
28033,58.37838000000001
28067,58.37838000000001
28100,58.37838000000001
28133,58.37838000000001
28167,58.06452
28200,58.06452
28233,58.06452
28267,58.06452
28300,58.06452
28333,58.06452
28367,58.06452
28400,58.06452
28433,58.06452
28467,58.06452
28500,58.06452
28533,58.06452
28567,58.06452
28600,58.06452
28633,58.06452
28667,60.0
28700,60.0
28733,60.0
28767,60.0
28800,60.0
28833,60.0
28867,60.0
28900,60.0
28933,60.0
28967,60.0
29000,60.0
29033,60.0
29067,60.0
29100,60.0
29133,60.0
29167,60.0
29200,59.66851
29233,59.66851
29267,59.66851
29300,59.66851
29333,59.66851
29367,59.66851
29400,59.66851
29433,60.0
29467,60.0
29500,60.0
29533,60.0
29567,60.0
29600,60.0
29633,60.0
29667,60.0
29700,60.0
29733,60.0
29767,60.0
29800,60.0
29833,60.0
29867,60.40268
29900,60.40268
29933,60.40268
29967,60.40268
30000,60.40268
30033,60.40268
30067,60.40268
30100,60.40268
30133,60.40268
30167,60.40268
30200,60.40268
30233,60.40268
30267,60.40268
30300,60.40268
30333,60.40268
30367,60.40268
30400,59.66851
30433,59.66851
30467,59.66851
30500,59.66851
30533,59.66851
30567,59.66851
30600,59.66851
30633,59.66851
30667,59.66851
30700,59.66851
30733,59.66851
30767,59.66851
30800,59.66851
30833,59.66851
30867,59.66851
30900,60.0
30933,60.0
30967,60.0
31000,60.0
31033,60.0
31067,60.0
31100,60.0
31133,60.0
31167,60.0
31200,60.0
31233,60.0
31267,60.33519
31300,60.33519
31333,60.33519
31367,60.33519
31400,60.33519
31433,60.33519
31467,60.33519
31500,60.33519
31533,60.33519
31567,60.33519
31600,60.33519
31633,60.33519
31667,60.33519
31700,60.33519
31733,60.33519
31767,60.33519
31800,60.33519
31833,60.33519
31867,60.33519
31900,60.33519
31933,60.81081
31967,60.81081
32000,60.81081
32033,60.81081
32067,60.81081
32100,60.81081
32133,60.81081
32167,59.66851
32200,59.66851
32233,59.66851
32267,59.66851
32300,59.66851
32333,59.66851
32367,59.66851
32400,59.66851
32433,59.66851
32467,59.66851
32500,59.66851
32533,59.66851
32567,59.66851
32600,59.66851
32633,59.66851
32667,59.66851
32700,59.66851
32733,59.66851
32767,59.66851
32800,59.66851
32833,59.66851
32867,59.66851
32900,59.66851
32933,59.66851
32967,60.40268
33000,60.40268
33033,60.40268
33067,60.40268
33100,60.40268
33133,60.40268
33167,60.40268
33200,60.40268
33233,60.40268
33267,59.66851
33300,59.66851
33333,59.66851
33367,59.66851
33400,59.66851
33433,59.66851
33467,59.66851
33500,59.66851
33533,59.66851
33567,59.66851
33600,59.66851
33633,59.66851
33667,59.66851
33700,59.66851
33733,59.66851
33767,59.66851
33800,59.66851
33833,59.66851
33867,59.66851
33900,59.66851
33933,59.66851
33967,59.66851
34000,59.66851
34033,57.69231
34067,57.69231
34100,57.69231
34133,57.69231
34167,57.69231
34200,57.69231
34233,57.69231
34267,57.69231
34300,57.69231
34333,57.69231
34367,56.84211
34400,56.84211
34433,56.84211
34467,56.84211
34500,56.84211
34533,56.84211
34567,56.84211
34600,56.84211
34633,56.84211
34667,56.84211
34700,56.84211
34733,56.84211
34767,56.84211
34800,56.84211
34833,56.84211
34867,56.25
34900,56.25
34933,56.25
34967,56.25
35000,56.25
35033,56.25
35067,56.25
35100,56.25
35133,56.25
35167,56.25
35200,56.25
35233,56.25
35267,56.25
35300,56.25
35333,56.25
35367,56.84211
35400,56.84211
35433,56.84211
35467,56.84211
35500,56.84211
35533,56.84211
35567,56.5445
35600,56.5445
35633,56.5445
35667,56.5445
35700,56.5445
35733,56.25
35767,56.25
35800,56.25
35833,56.25
35867,56.25
35900,56.25
35933,56.25
35967,56.25
36000,56.25
36033,56.25
36067,56.25
36100,56.25
36133,56.25
36167,56.25
36200,56.25
36233,56.25
36267,56.25
36300,56.25
36333,56.25
36367,56.25
36400,57.14286
36433,57.14286
36467,57.14286
36500,57.14286
36533,57.14286
36567,57.14286
36600,57.14286
36633,57.14286
36667,57.14286
36700,57.14286
36733,57.14286
36767,57.14286
36800,57.14286
36833,57.14286
36867,57.14286
36900,57.14286
36933,56.25
36967,56.25
37000,56.25
37033,56.25
37067,56.25
37100,56.25
37133,56.25
37167,56.25
37200,56.25
37233,56.25
37267,56.25
37300,56.25
37333,56.25
37367,56.25
37400,56.25
37433,56.5445
37467,56.5445
37500,56.5445
37533,56.5445
37567,56.5445
37600,56.25
37633,56.25
37667,56.25
37700,56.25
37733,56.25
37767,56.25
37800,56.25
37833,56.25
37867,56.25
37900,56.25
37933,56.25
37967,56.25
38000,56.60378000000001
38033,56.60378000000001
38067,56.60378000000001
38100,56.60378000000001
38133,56.60378000000001
38167,56.60378000000001
38200,56.60378000000001
38233,56.60378000000001
38267,56.60378000000001
38300,56.60378000000001
38333,56.60378000000001
38367,56.60378000000001
38400,56.60378000000001
38433,56.60378000000001
38467,56.84211
38500,56.84211
38533,56.84211
38567,56.5445
38600,56.5445
38633,56.5445
38667,56.5445
38700,56.5445
38733,56.5445
38767,56.5445
38800,56.5445
38833,56.5445
38867,56.5445
38900,56.5445
38933,56.5445
38967,56.96202
39000,56.96202
39033,56.96202
39067,56.96202
39100,56.96202
39133,56.96202
39167,56.96202
39200,56.96202
39233,56.96202
39267,56.96202
39300,56.96202
39333,56.96202
39367,56.96202
39400,56.96202
39433,56.96202
39467,56.96202
39500,56.96202
39533,56.96202
39567,56.84211
39600,56.84211
39633,56.84211
39667,56.84211
39700,56.84211
39733,56.84211
39767,56.84211
39800,56.84211
39833,56.84211
39867,56.84211
39900,56.84211
39933,56.84211
39967,56.84211
40000,56.84211
40033,56.84211
40067,57.69231
40100,57.69231
40133,57.69231
40167,57.69231
40200,57.69231
40233,57.69231
40267,57.69231
40300,57.69231
40333,57.69231
40367,57.69231
40400,57.69231
40433,57.69231
40467,57.69231
40500,57.69231
40533,58.37838000000001
40567,58.37838000000001
40600,58.37838000000001
40633,58.37838000000001
40667,58.37838000000001
40700,58.37838000000001
40733,58.37838000000001
40767,58.37838000000001
40800,58.37838000000001
40833,58.37838000000001
40867,58.37838000000001
40900,58.37838000000001
40933,58.37838000000001
40967,58.37838000000001
41000,58.37838000000001
41033,58.37838000000001
41067,58.37838000000001
41100,58.37838000000001
41133,58.37838000000001
41167,58.37838000000001
41200,58.44156
41233,58.44156
41267,58.44156
41300,58.44156
41333,58.44156
41367,58.44156
41400,58.44156
41433,58.44156
41467,58.44156
41500,59.01639
41533,59.01639
41567,59.01639
41600,59.01639
41633,59.01639
41667,59.01639
41700,58.44156
41733,58.44156
41767,58.44156
41800,58.44156
41833,58.44156
41867,58.44156
41900,58.44156
41933,58.44156
41967,58.44156
42000,54.54546
42033,54.54546
42067,54.54546
42100,54.54546
42133,54.54546
42167,54.54546
42200,54.54546
42233,53.25444
42267,53.25444
42300,53.25444
42333,53.25444
42367,53.25444
42400,53.25444
42433,53.25444
42467,53.25444
42500,53.25444
42533,53.25444
42567,53.25444
42600,53.25444
42633,53.25444
42667,53.25444
42700,53.25444
42733,53.25444
42767,53.25444
42800,53.25444
42833,53.25444
42867,53.25444
42900,53.25444
42933,53.25444
42967,53.25444
43000,53.25444
43033,53.25444
43067,53.73134
43100,53.73134
43133,53.73134
43167,53.73134
43200,53.25444
43233,53.25444
43267,53.25444
43300,53.25444
43333,53.25444
43367,53.25444
43400,53.25444
43433,53.25444
43467,53.25444
43500,53.25444
43533,53.57143000000001
43567,53.57143000000001
43600,53.57143000000001
43633,53.57143000000001
43667,53.57143000000001
43700,53.57143000000001
43733,53.57143000000001
43767,53.57143000000001
43800,53.57143000000001
43833,53.57143000000001
43867,53.57143000000001
43900,55.6701
43933,55.6701
43967,55.6701
44000,55.6701
44033,55.6701
44067,55.6701
44100,55.6701
44133,55.6701
44167,55.6701
44200,55.6701
44233,55.6701
44267,55.55556
44300,55.55556
44333,55.55556
44367,55.55556
44400,55.55556
44433,55.55556
44467,55.55556
44500,55.55556
44533,55.55556
44567,55.55556
44600,55.55556
44633,55.55556
44667,55.55556
44700,55.55556
44733,55.55556
44767,55.55556
44800,57.14286
44833,55.55556
44867,57.14286
44900,56.84211
44933,56.84211
44967,56.84211
45000,56.84211
45033,56.84211
45067,56.84211
45100,56.84211
45133,56.84211
45167,56.84211
45200,56.84211
45233,56.84211
45267,56.84211
45300,56.84211
45333,57.32484
45367,57.32484
45400,57.32484
45433,57.32484
45467,57.32484
45500,57.32484
45533,57.32484
45567,57.32484
45600,59.66851
45633,59.66851
45667,59.66851
45700,59.66851
45733,59.66851
45767,59.66851
45800,59.66851
45833,59.66851
45867,59.66851
45900,59.66851
45933,59.66851
45967,59.66851
46000,59.66851
46033,59.66851
46067,59.66851
46100,59.66851
46133,59.66851
46167,59.66851
46200,59.66851
46233,59.66851
46267,59.66851
46300,59.66851
46333,59.66851
46367,59.66851
46400,59.21053000000001
46433,59.21053000000001
46467,59.21053000000001
46500,59.21053000000001
46533,59.21053000000001
46567,59.21053000000001
46600,59.21053000000001
46633,59.21053000000001
46667,59.21053000000001
46700,59.21053000000001
46733,59.21053000000001
46767,59.21053000000001
46800,58.37838000000001
46833,58.37838000000001
46867,58.37838000000001
46900,58.37838000000001
46933,58.37838000000001
46967,58.37838000000001
47000,58.37838000000001
47033,58.37838000000001
47067,58.37838000000001
47100,58.37838000000001
47133,58.37838000000001
47167,58.37838000000001
47200,58.37838000000001
47233,58.37838000000001
47267,68.10811
47300,68.10811
47333,68.10811
47367,69.23076999999999
47400,69.23076999999999
47433,69.23076999999999
47467,69.23076999999999
47500,69.23076999999999
47533,69.23076999999999
47567,69.23076999999999
47600,69.23076999999999
47633,69.23076999999999
47667,69.23076999999999
47700,69.23076999999999
47733,69.23076999999999
47767,67.02128
47800,69.23076999999999
47833,66.31579
47867,66.31579
47900,66.31579
47933,66.31579
47967,66.31579
48000,67.02128
48033,67.02128
48067,67.02128
48100,66.31579
48133,66.31579
48167,66.31579
48200,66.31579
48233,66.31579
48267,66.31579
48300,66.31579
48333,61.71429000000001
48367,61.71429000000001
48400,61.71429000000001
48433,61.71429000000001
48467,61.71429000000001
48500,61.71429000000001
48533,61.71429000000001
48567,61.71429000000001
48600,61.71429000000001
48633,61.71429000000001
48667,61.71429000000001
48700,61.71429000000001
48733,61.71429000000001
48767,61.71429000000001
48800,61.71429000000001
48833,62.5
48867,61.71429000000001
48900,61.71429000000001
48933,61.71429000000001
48967,61.71429000000001
49000,61.71429000000001
49033,61.71429000000001
49067,61.71429000000001
49100,61.71429000000001
49133,61.71429000000001
49167,61.71429000000001
49200,61.71429000000001
49233,61.71429000000001
49267,61.71429000000001
49300,61.71429000000001
49333,61.71429000000001
49367,61.71429000000001
49400,61.71429000000001
49433,61.71429000000001
49467,61.71429000000001
49500,61.71429000000001
49533,61.71429000000001
49567,61.71429000000001
49600,61.71429000000001
49633,61.71429000000001
49667,61.71429000000001
49700,61.71429000000001
49733,61.71429000000001
49767,61.71429000000001
49800,61.71429000000001
49833,63.31658
49867,62.42775
49900,62.42775
49933,62.42775
49967,62.06896999999999
50000,62.06896999999999
50033,62.06896999999999
50067,62.06896999999999
50100,62.06896999999999
50133,62.06896999999999
50167,62.06896999999999
50200,62.06896999999999
50233,62.06896999999999
50267,62.06896999999999
50300,62.06896999999999
50333,62.06896999999999
50367,62.06896999999999
50400,62.06896999999999
50433,62.06896999999999
50467,62.06896999999999
50500,62.06896999999999
50533,62.06896999999999
50567,62.06896999999999
50600,62.06896999999999
50633,62.06896999999999
50667,62.06896999999999
50700,61.76471
50733,61.36364
50767,61.36364
50800,61.36364
50833,61.36364
50867,61.36364
50900,61.36364
50933,61.36364
50967,61.36364
51000,61.36364
51033,61.36364
51067,61.36364
51100,61.36364
51133,61.36364
51167,61.36364
51200,61.36364
51233,61.36364
51267,61.36364
51300,61.36364
51333,61.36364
51367,61.36364
51400,61.36364
51433,61.36364
51467,61.36364
51500,61.36364
51533,61.36364
51567,61.36364
51600,61.36364
51633,61.36364
51667,58.82353000000001
51700,58.82353000000001
51733,58.82353000000001
51767,58.82353000000001
51800,58.82353000000001
51833,58.82353000000001
51867,58.82353000000001
51900,58.82353000000001
51933,58.82353000000001
51967,56.5445
52000,56.5445
52033,56.5445
52067,56.5445
52100,56.5445
52133,56.5445
52167,56.5445
52200,56.5445
52233,56.5445
52267,56.5445
52300,56.5445
52333,56.5445
52367,56.5445
52400,56.5445
52433,56.96202
52467,56.96202
52500,56.96202
52533,56.96202
52567,56.96202
52600,56.96202
52633,56.96202
52667,56.96202
52700,56.96202
52733,56.96202
52767,56.96202
52800,56.96202
52833,56.96202
52867,58.37838000000001
52900,58.37838000000001
52933,58.37838000000001
52967,58.37838000000001
53000,58.37838000000001
53033,58.37838000000001
53067,58.37838000000001
53100,58.37838000000001
53133,58.37838000000001
53167,58.37838000000001
53200,58.37838000000001
53233,58.37838000000001
53267,58.37838000000001
53300,58.37838000000001
53333,58.37838000000001
53367,58.37838000000001
53400,58.37838000000001
53433,58.37838000000001
53467,58.37838000000001
53500,59.01639
53533,60.40268
53567,59.60265
53600,59.60265
53633,59.60265
53667,59.60265
53700,59.60265
53733,58.82353000000001
53767,58.82353000000001
53800,58.82353000000001
53833,59.34066
53867,58.82353000000001
53900,58.69565
53933,58.69565
53967,58.69565
54000,58.69565
54033,58.69565
54067,58.69565
54100,58.69565
54133,58.69565
54167,58.69565
54200,58.69565
54233,58.69565
54267,58.69565
54300,58.69565
54333,58.69565
54367,58.69565
54400,58.69565
54433,58.69565
54467,58.69565
54500,58.69565
54533,58.69565
54567,58.69565
54600,59.60265
54633,59.60265
54667,59.60265
54700,59.60265
54733,59.60265
54767,59.60265
54800,59.60265
54833,59.60265
54867,60.0
54900,60.0
54933,60.0
54967,60.0
55000,60.0
55033,60.0
55067,60.0
55100,60.0
55133,60.0
55167,59.66851
55200,59.66851
55233,59.66851
55267,59.66851
55300,59.66851
55333,59.66851
55367,59.66851
55400,59.66851
55433,59.66851
55467,59.66851
55500,59.66851
55533,59.66851
55567,59.66851
55600,59.66851
55633,59.66851
55667,59.66851
55700,58.06452
55733,58.06452
55767,58.06452
55800,58.06452
55833,58.06452
55867,58.06452
55900,58.06452
55933,58.06452
55967,58.06452
56000,58.06452
56033,57.14286
56067,57.14286
56100,57.44681
56133,57.44681
56167,57.44681
56200,57.44681
56233,57.44681
56267,57.44681
56300,57.44681
56333,57.44681
56367,57.44681
56400,57.44681
56433,57.44681
56467,57.44681
56500,57.44681
56533,57.44681
56567,57.44681
56600,57.32484
56633,57.32484
56667,57.32484
56700,57.32484
56733,57.32484
56767,57.32484
56800,57.69231
56833,57.69231
56867,57.69231
56900,57.69231
56933,57.69231
56967,57.69231
57000,57.69231
57033,57.69231
57067,57.75401
57100,57.75401
57133,57.75401
57167,57.75401
57200,58.06452
57233,58.06452
57267,58.06452
57300,58.06452
57333,58.06452
57367,58.06452
57400,58.06452
57433,58.06452
57467,58.06452
57500,58.06452
57533,58.06452
57567,58.06452
57600,58.06452
57633,58.06452
57667,58.06452
57700,58.82353000000001
57733,58.82353000000001
57767,58.82353000000001
57800,58.82353000000001
57833,58.82353000000001
57867,58.82353000000001
57900,58.82353000000001
57933,58.82353000000001
57967,58.82353000000001
58000,58.82353000000001
58033,58.82353000000001
58067,59.01639
58100,59.01639
58133,59.01639
58167,59.01639
58200,59.01639
58233,59.01639
58267,59.01639
58300,59.01639
58333,59.01639
58367,59.01639
58400,59.01639
58433,59.01639
58467,59.01639
58500,59.01639
58533,59.01639
58567,59.01639
58600,59.01639
58633,59.01639
58667,59.01639
58700,59.01639
58733,59.01639
58767,59.01639
58800,57.69231
58833,57.69231
58867,57.69231
58900,57.69231
58933,57.69231
58967,57.69231
59000,57.69231
59033,57.69231
59067,57.69231
59100,57.75401
59133,57.75401
59167,57.75401
59200,57.75401
59233,57.75401
59267,57.75401
59300,57.75401
59333,57.75401
59367,57.75401
59400,57.75401
59433,57.75401
59467,57.75401
59500,57.75401
59533,57.75401
59567,57.75401
59600,57.75401
59633,57.75401
59667,57.75401
59700,57.32484
59733,57.32484
59767,57.32484
59800,57.32484
59833,57.32484
59867,57.32484
59900,57.32484
59933,57.32484
59967,57.32484
60000,57.32484
60033,57.32484
60067,57.32484
60100,57.32484
60133,57.32484
60167,57.32484
60200,57.32484
60233,56.5445
60267,56.25
60300,56.5445
60333,56.5445
60367,56.5445
60400,56.5445
60433,56.5445
60467,56.5445
60500,56.5445
60533,56.5445
60567,56.5445
60600,56.5445
60633,56.5445
60667,56.5445
60700,56.25
60733,56.25
60767,56.25
60800,56.25
60833,56.25
60867,56.25
60900,56.25
60933,56.25
60967,56.25
61000,56.25
61033,56.25
61067,56.25
61100,56.25
61133,56.25
61167,56.25
61200,57.14286
61233,56.25
61267,56.5445
61300,56.5445
61333,56.5445
61367,56.5445
61400,56.5445
61433,56.5445
61467,56.5445
61500,56.5445
61533,56.5445
61567,56.5445
61600,56.5445
61633,56.5445
61667,56.5445
61700,56.5445
61733,57.32484
61767,57.32484
61800,57.32484
61833,57.32484
61867,57.32484
61900,57.32484
61933,57.32484
61967,57.32484
62000,57.32484
62033,57.32484
62067,57.32484
62100,57.32484
62133,57.32484
62167,57.32484
62200,57.32484
62233,57.32484
62267,57.32484
62300,57.32484
62333,57.32484
62367,57.32484
62400,56.5445
62433,56.5445
62467,56.5445
62500,56.5445
62533,56.5445
62567,56.5445
62600,56.5445
62633,56.5445
62667,56.5445
62700,56.5445
62733,56.5445
62767,56.5445
62800,56.5445
62833,56.5445
62867,56.25
62900,56.25
62933,56.25
62967,56.25
63000,56.25
63033,56.25
63067,56.25
63100,56.25
63133,56.25
63167,56.25
63200,56.25
63233,56.25
63267,58.06452
63300,58.06452
63333,58.06452
63367,58.06452
63400,58.06452
63433,58.06452
63467,58.06452
63500,58.06452
63533,58.06452
63567,58.06452
63600,58.06452
63633,58.06452
63667,58.06452
63700,58.06452
63733,58.06452
63767,58.06452
63800,58.06452
63833,58.06452
63867,58.06452
63900,57.69231
63933,57.69231
63967,57.69231
64000,57.69231
64033,57.69231
64067,57.69231
64100,57.69231
64133,59.34066
64167,59.34066
64200,59.34066
64233,59.34066
64267,59.34066
64300,59.34066
64333,59.34066
64367,59.34066
64400,59.34066
64433,59.34066
64467,59.34066
64500,59.34066
64533,59.34066
64567,59.34066
64600,59.34066
64633,59.34066
64667,59.34066
64700,59.34066
64733,59.34066
64767,59.34066
64800,59.34066
64833,59.34066
64867,59.34066
64900,59.60265
64933,59.60265
64967,59.60265
65000,59.60265
65033,59.60265
65067,59.60265
65100,60.0
65133,60.0
65167,60.0
65200,60.0
65233,60.0
65267,60.0
65300,60.0
65333,60.0
65367,60.0
65400,60.0
65433,60.0
65467,60.0
65500,60.0
65533,60.0
65567,60.0
65600,60.0
65633,60.0
65667,60.0
65700,60.0
65733,60.0
65767,60.0
65800,60.0
65833,60.0
65867,60.0
65900,60.0
65933,61.64384
65967,61.64384
66000,61.64384
66033,61.64384
66067,61.71429000000001
66100,61.71429000000001
66133,61.71429000000001
66167,61.71429000000001
66200,61.71429000000001
66233,61.71429000000001
66267,61.71429000000001
66300,61.71429000000001
66333,61.71429000000001
66367,61.71429000000001
66400,61.71429000000001
66433,62.06896999999999
66467,62.06896999999999
66500,62.06896999999999
66533,62.06896999999999
66567,62.06896999999999
66600,62.06896999999999
66633,62.06896999999999
66667,62.06896999999999
66700,62.06896999999999
66733,62.06896999999999
66767,62.06896999999999
66800,62.06896999999999
66833,62.06896999999999
66867,63.31658
66900,63.31658
66933,63.31658
66967,63.31658
67000,63.31658
67033,63.31658
67067,64.28571
67100,64.28571
67133,64.28571
67167,64.28571
67200,64.28571
67233,64.28571
67267,64.28571
67300,64.28571
67333,64.28571
67367,64.28571
67400,64.28571
67433,64.28571
67467,64.28571
67500,64.28571
67533,64.28571
67567,64.28571
67600,64.28571
67633,64.28571
67667,64.28571
67700,64.28571
67733,64.28571
67767,64.28571
67800,64.28571
67833,64.28571
67867,64.28571
67900,63.31658
67933,63.31658
67967,63.31658
68000,63.31658
68033,63.31658
68067,63.31658
68100,65.45454000000001
68133,65.45454000000001
68167,65.45454000000001
68200,65.45454000000001
68233,65.45454000000001
68267,65.45454000000001
68300,65.45454000000001
68333,65.45454000000001
68367,65.45454000000001
68400,65.45454000000001
68433,65.45454000000001
68467,65.45454000000001
68500,65.45454000000001
68533,65.45454000000001
68567,65.45454000000001
68600,65.45454000000001
68633,65.45454000000001
68667,65.45454000000001
68700,65.45454000000001
68733,65.45454000000001
68767,65.45454000000001
68800,65.45454000000001
68833,65.45454000000001
68867,65.45454000000001
68900,65.45454000000001
68933,64.28571
68967,64.28571
69000,64.28571
69033,64.28571
69067,64.28571
69100,64.28571
69133,64.28571
69167,64.28571
69200,64.28571
69233,63.52941
69267,63.52941
69300,63.52941
69333,63.52941
69367,63.52941
69400,63.52941
69433,63.52941
69467,63.52941
69500,63.52941
69533,63.52941
69567,63.52941
69600,63.52941
69633,63.52941
69667,63.52941
69700,63.52941
69733,63.52941
69767,63.52941
69800,63.52941
69833,63.52941
69867,63.52941
69900,63.52941
69933,63.52941
69967,63.52941
70000,62.37624
70033,62.37624
70067,62.37624
70100,61.36364
70133,61.36364
70167,61.36364
70200,61.36364
70233,61.36364
70267,61.36364
70300,61.36364
70333,61.36364
70367,61.36364
70400,61.36364
70433,61.36364
70467,61.36364
70500,61.36364
70533,61.36364
70567,61.36364
70600,61.36364
70633,61.36364
70667,61.36364
70700,61.36364
70733,61.36364
70767,61.36364
70800,61.36364
70833,61.36364
70867,61.36364
70900,61.36364
70933,61.36364
70967,61.22449
71000,61.22449
71033,61.22449
71067,61.22449
71100,60.0
71133,60.0
71167,60.0
71200,60.0
71233,60.0
71267,60.0
71300,60.0
71333,60.0
71367,60.0
71400,60.0
71433,60.0
71467,60.0
71500,60.0
71533,60.0
71567,60.0
71600,60.0
71633,60.0
71667,60.0
71700,60.0
71733,60.0
71767,60.0
71800,60.0
71833,60.0
71867,60.0
71900,60.0
71933,59.21053000000001
71967,59.21053000000001
72000,59.21053000000001
72033,59.21053000000001
72067,59.21053000000001
72100,59.34066
72133,59.34066
72167,59.34066
72200,59.34066
72233,59.34066
72267,59.34066
72300,59.34066
72333,59.34066
72367,59.34066
72400,59.34066
72433,59.34066
72467,59.34066
72500,59.34066
72533,59.34066
72567,59.34066
72600,59.34066
72633,59.34066
72667,59.34066
72700,59.34066
72733,59.34066
72767,59.34066
72800,59.34066
72833,59.34066
72867,57.32484
72900,57.32484
72933,57.32484
72967,57.32484
73000,57.32484
73033,58.37838000000001
73067,58.37838000000001
73100,58.37838000000001
73133,58.37838000000001
73167,58.06452
73200,58.06452
73233,58.06452
73267,58.06452
73300,58.06452
73333,58.06452
73367,58.06452
73400,58.06452
73433,58.06452
73467,58.06452
73500,58.06452
73533,58.06452
73567,58.06452
73600,58.06452
73633,58.06452
73667,58.06452
73700,58.06452
73733,58.06452
73767,58.06452
73800,58.06452
73833,58.06452
73867,58.06452
73900,58.06452
73933,58.06452
73967,58.06452
74000,58.06452
74033,58.06452
74067,58.06452
74100,58.06452
74133,57.75401
74167,57.75401
74200,57.75401
74233,57.75401
74267,57.75401
74300,57.75401
74333,57.75401
74367,57.75401
74400,57.75401
74433,57.75401
74467,57.75401
74500,57.75401
74533,57.75401
74567,57.75401
74600,57.75401
74633,57.75401
74667,57.75401
74700,57.75401
74733,57.69231
74767,57.69231
74800,57.69231
74833,57.69231
74867,57.69231
74900,57.69231
74933,57.69231
74967,57.69231
75000,57.69231
75033,57.69231
75067,57.69231
75100,57.69231
75133,58.06452
75167,58.06452
75200,58.06452
75233,58.06452
75267,58.06452
75300,58.06452
75333,58.06452
75367,58.06452
75400,58.06452
75433,58.06452
75467,58.06452
75500,58.06452
75533,58.06452
75567,58.06452
75600,58.06452
75633,58.06452
75667,58.06452
75700,58.06452
75733,58.06452
75767,58.44156
75800,58.44156
75833,58.44156
75867,58.44156
75900,58.44156
75933,58.44156
75967,58.44156
76000,58.44156
76033,58.44156
76067,59.34066
76100,59.34066
76133,59.34066
76167,59.01639
76200,59.01639
76233,59.01639
76267,59.01639
76300,59.01639
76333,59.01639
76367,59.01639
76400,59.01639
76433,59.01639
76467,59.01639
76500,59.01639
76533,59.01639
76567,59.01639
76600,59.01639
76633,59.01639
76667,59.01639
76700,59.01639
76733,59.01639
76767,59.01639
76800,59.01639
76833,60.0
76867,60.0
76900,60.0
76933,60.0
76967,60.0
77000,60.0
77033,60.0
77067,60.0
77100,60.0
77133,60.0
77167,60.0
77200,59.01639
77233,59.01639
77267,59.01639
77300,59.01639
77333,59.01639
77367,59.01639
77400,59.01639
77433,59.01639
77467,59.01639
77500,59.01639
77533,59.01639
77567,59.01639
77600,59.01639
77633,59.01639
77667,59.01639
77700,59.01639
77733,59.01639
77767,59.01639
77800,59.01639
77833,59.01639
77867,59.01639
77900,59.01639
77933,58.82353000000001
77967,58.82353000000001
78000,58.82353000000001
78033,58.82353000000001
78067,58.82353000000001
78100,58.82353000000001
78133,58.82353000000001
78167,58.82353000000001
78200,58.82353000000001
78233,58.82353000000001
78267,58.82353000000001
78300,58.82353000000001
78333,58.82353000000001
78367,58.82353000000001
78400,57.44681
78433,57.44681
78467,57.44681
78500,57.14286
78533,57.14286
78567,57.14286
78600,57.14286
78633,57.14286
78667,57.14286
78700,57.14286
78733,57.14286
78767,57.14286
78800,57.14286
78833,57.14286
78867,57.14286
78900,57.14286
78933,55.90062
78967,55.90062
79000,55.90062
79033,55.90062
79067,55.90062
79100,55.90062
79133,55.90062
79167,55.90062
79200,55.90062
79233,55.90062
79267,55.90062
79300,55.90062
79333,55.90062
79367,55.90062
79400,55.90062
79433,55.90062
79467,55.90062
79500,55.6701
79533,55.6701
79567,55.6701
79600,55.6701
79633,55.6701
79667,55.6701
79700,55.6701
79733,55.6701
79767,55.6701
79800,55.6701
79833,55.6701
79867,55.90062
79900,55.90062
79933,55.90062
79967,55.90062
80000,55.90062
80033,55.90062
80067,55.90062
80100,55.90062
80133,55.90062
80167,55.90062
80200,55.90062
80233,55.90062
80267,55.90062
80300,55.90062
80333,55.90062
80367,55.90062
80400,55.90062
80433,55.90062
80467,55.90062
80500,55.90062
80533,56.25
80567,56.5445
80600,56.25
80633,56.25
80667,56.25
80700,56.25
80733,56.25
80767,56.25
80800,56.25
80833,56.25
80867,56.25
80900,56.25
80933,56.25
80967,55.21473
81000,55.21473
81033,55.21473
81067,55.21473
81100,55.21473
81133,55.21473
81167,55.21473
81200,55.21473
81233,55.21473
81267,55.21473
81300,55.21473
81333,55.21473
81367,55.21473
81400,55.21473
81433,55.21473
81467,55.21473
81500,55.21473
81533,55.21473
81567,55.21473
81600,55.38462
81633,55.38462
81667,55.38462
81700,55.38462
81733,55.38462
81767,55.38462
81800,55.38462
81833,55.38462
81867,55.38462
81900,55.38462
81933,54.54546
81967,54.54546
82000,54.54546
82033,54.54546
82067,54.54546
82100,54.54546
82133,54.54546
82167,54.54546
82200,54.54546
82233,54.54546
82267,54.54546
82300,54.54546
82333,54.54546
82367,54.54546
82400,54.54546
82433,54.54546
82467,54.54546
82500,54.54546
82533,54.54546
82567,54.54546
82600,54.54546
82633,54.54546
82667,54.54546
82700,54.54546
82733,54.54546
82767,54.54546
82800,54.54546
82833,54.54546
82867,54.54546
82900,54.54546
82933,54.54546
82967,54.54546
83000,54.54546
83033,54.54546
83067,54.54546
83100,54.54546
83133,54.54546
83167,54.54546
83200,54.54546
83233,54.54546
83267,54.54546
83300,54.54546
83333,54.54546
83367,54.54546
83400,54.54546
83433,54.54546
83467,54.54546
83500,54.54546
83533,54.54546
83567,54.54546
83600,56.25
83633,56.25
83667,56.25
83700,56.25
83733,56.25
83767,56.25
83800,56.25
83833,56.25
83867,56.25
83900,56.25
83933,56.25
83967,56.25
84000,56.25
84033,57.69231
84067,57.69231
84100,57.69231
84133,57.69231
84167,57.69231
84200,57.69231
84233,57.69231
84267,57.69231
84300,57.69231
84333,57.69231
84367,57.69231
84400,57.69231
84433,57.69231
84467,57.69231
84500,57.69231
84533,57.69231
84567,58.37838000000001
84600,58.37838000000001
84633,58.37838000000001
84667,58.37838000000001
84700,58.37838000000001
84733,58.37838000000001
84767,58.37838000000001
84800,58.37838000000001
84833,58.37838000000001
84867,58.37838000000001
84900,58.37838000000001
84933,58.37838000000001
84967,58.37838000000001
85000,58.37838000000001
85033,58.37838000000001
85067,58.37838000000001
85100,58.37838000000001
85133,58.37838000000001
85167,58.37838000000001
85200,58.37838000000001
85233,59.21053000000001
85267,59.21053000000001
85300,59.21053000000001
85333,59.21053000000001
85367,59.21053000000001
85400,59.21053000000001
85433,59.21053000000001
85467,59.21053000000001
85500,59.21053000000001
85533,59.21053000000001
85567,59.21053000000001
85600,59.01639
85633,59.01639
85667,59.01639
85700,59.01639
85733,59.01639
85767,59.01639
85800,59.01639
85833,59.01639
85867,59.01639
85900,59.01639
85933,59.01639
85967,59.01639
86000,59.01639
86033,59.01639
86067,59.01639
86100,59.01639
86133,59.01639
86167,59.01639
86200,59.01639
86233,59.01639
86267,59.01639
86300,59.01639
86333,59.21053000000001
86367,59.21053000000001
86400,59.21053000000001
86433,59.21053000000001
86467,59.21053000000001
86500,59.21053000000001
86533,59.21053000000001
86567,59.66851
86600,59.66851
86633,59.66851
86667,59.66851
86700,59.66851
86733,59.66851
86767,59.66851
86800,59.66851
86833,59.66851
86867,59.66851
86900,59.66851
86933,59.66851
86967,59.66851
87000,59.66851
87033,59.66851
87067,59.66851
87100,59.66851
87133,59.66851
87167,59.66851
87200,59.66851
87233,59.66851
87267,59.66851
87300,59.66851
87333,59.66851
87367,60.40268
87400,60.40268
87433,60.40268
87467,60.40268
87500,60.40268
87533,60.40268
87567,60.40268
87600,60.40268
87633,60.40268
87667,59.34066
87700,59.34066
87733,59.34066
87767,59.34066
87800,59.34066
87833,59.34066
87867,59.34066
87900,59.34066
87933,59.34066
87967,59.34066
88000,59.34066
88033,59.34066
88067,59.34066
88100,59.34066
88133,59.34066
88167,59.34066
88200,59.34066
88233,59.34066
88267,59.34066
88300,59.34066
88333,59.34066
88367,59.34066
88400,59.34066
88433,60.0
88467,60.0
88500,60.0
88533,60.0
88567,60.0
88600,60.0
88633,60.0
88667,60.0
88700,60.0
88733,59.34066
88767,59.34066
88800,59.34066
88833,59.34066
88867,59.34066
88900,59.34066
88933,59.34066
88967,59.34066
89000,59.34066
89033,59.34066
89067,59.34066
89100,59.34066
89133,59.34066
89167,59.34066
89200,59.34066
89233,59.34066
89267,59.34066
89300,59.34066
89333,59.34066
89367,59.34066
89400,59.34066
89433,59.34066
89467,59.34066
89500,58.44156
89533,58.44156
89567,58.44156
89600,58.44156
89633,58.44156
89667,59.66851
89700,59.66851
89733,59.66851
89767,59.66851
89800,59.66851
89833,59.66851
89867,59.66851
89900,59.66851
89933,59.66851
89967,59.66851
90000,59.66851
90033,59.66851
90067,59.66851
90100,59.66851
90133,59.66851
90167,59.66851
90200,59.66851
90233,59.66851
90267,59.66851
90300,59.66851
90333,59.66851
90367,59.66851
90400,59.66851
90433,59.21053000000001
90467,59.21053000000001
90500,59.21053000000001
90533,59.21053000000001
90567,60.0
90600,60.0
90633,60.0
90667,60.0
90700,60.0
90733,60.0
90767,60.0
90800,60.0
90833,60.0
90867,60.0
90900,60.0
90933,60.0
90967,60.0
91000,60.0
91033,60.0
91067,60.0
91100,60.0
91133,60.0
91167,60.0
91200,60.0
91233,60.0
91267,60.0
91300,60.0
91333,60.0
91367,60.0
91400,60.40268
91433,60.40268
91467,60.40268
91500,60.40268
91533,60.40268
91567,60.40268
91600,60.40268
91633,60.40268
91667,59.34066
91700,60.40268
91733,58.69565
91767,58.69565
91800,58.69565
91833,58.69565
91867,59.01639
91900,59.01639
91933,59.01639
91967,59.01639
92000,59.01639
92033,58.69565
92067,58.69565
92100,58.69565
92133,58.69565
92167,59.01639
92200,59.01639
92233,59.01639
92267,59.01639
92300,59.01639
92333,59.01639
92367,59.01639
92400,59.01639
92433,58.44156
92467,58.44156
92500,58.44156
92533,58.44156
92567,58.44156
92600,58.44156
92633,58.44156
92667,58.44156
92700,58.44156
92733,58.37838000000001
92767,58.37838000000001
92800,58.37838000000001
92833,58.37838000000001
92867,58.37838000000001
92900,58.37838000000001
92933,58.37838000000001
92967,58.37838000000001
93000,58.37838000000001
93033,58.37838000000001
93067,58.37838000000001
93100,58.37838000000001
93133,58.37838000000001
93167,58.37838000000001
93200,58.37838000000001
93233,58.37838000000001
93267,58.37838000000001
93300,58.37838000000001
93333,58.37838000000001
93367,58.37838000000001
93400,59.21053000000001
93433,59.21053000000001
93467,59.21053000000001
93500,59.21053000000001
93533,59.21053000000001
93567,59.21053000000001
93600,59.21053000000001
93633,59.21053000000001
93667,59.21053000000001
93700,59.21053000000001
93733,59.21053000000001
93767,59.01639
93800,59.01639
93833,59.01639
93867,59.01639
93900,59.01639
93933,59.01639
93967,59.01639
94000,59.01639
94033,59.01639
94067,59.01639
94100,59.01639
94133,59.01639
94167,59.01639
94200,59.01639
94233,59.01639
94267,59.01639
94300,59.01639
94333,59.01639
94367,59.01639
94400,59.01639
94433,59.01639
94467,59.01639
94500,59.60265
94533,59.60265
94567,59.60265
94600,59.60265
94633,59.60265
94667,59.60265
94700,59.60265
94733,59.60265
94767,59.66851
94800,59.66851
94833,59.66851
94867,59.66851
94900,59.66851
94933,59.66851
94967,59.66851
95000,59.66851
95033,59.66851
95067,59.66851
95100,59.66851
95133,59.66851
95167,59.66851
95200,59.66851
95233,59.66851
95267,59.66851
95300,59.66851
95333,59.66851
95367,59.66851
95400,59.66851
95433,59.66851
95467,59.66851
95500,59.66851
95533,59.66851
95567,58.44156
95600,58.44156
95633,58.44156
95667,58.44156
95700,58.44156
95733,59.01639
95767,59.34066
95800,59.01639
95833,59.01639
95867,59.01639
95900,59.01639
95933,59.01639
95967,59.01639
96000,59.01639
96033,59.01639
96067,59.01639
96100,59.01639
96133,59.01639
96167,59.01639
96200,59.01639
96233,59.01639
96267,59.01639
96300,59.01639
96333,59.01639
96367,59.01639
96400,59.01639
96433,59.01639
96467,58.06452
96500,58.06452
96533,58.06452
96567,58.06452
96600,58.06452
96633,58.06452
96667,58.06452
96700,58.06452
96733,58.06452
96767,58.06452
96800,58.06452
96833,58.06452
96867,58.06452
96900,58.06452
96933,58.06452
96967,58.06452
97000,58.06452
97033,58.06452
97067,58.06452
97100,58.06452
97133,58.06452
97167,58.06452
97200,58.06452
97233,58.06452
97267,58.06452
97300,58.06452
97333,58.06452
97367,58.06452
97400,58.82353000000001
97433,58.82353000000001
97467,58.82353000000001
97500,58.82353000000001
97533,58.82353000000001
97567,58.82353000000001
97600,58.82353000000001
97633,58.82353000000001
97667,58.82353000000001
97700,58.82353000000001
97733,58.82353000000001
97767,59.01639
97800,59.01639
97833,59.01639
97867,59.01639
97900,59.01639
97933,59.01639
97967,59.01639
98000,59.01639
98033,59.01639
98067,59.01639
98100,59.01639
98133,59.01639
98167,59.01639
98200,59.01639
98233,59.01639
98267,59.01639
98300,59.01639
98333,59.01639
98367,59.01639
98400,59.01639
98433,59.01639
98467,59.01639
98500,59.60265
98533,59.60265
98567,59.60265
98600,59.60265
98633,59.60265
98667,59.60265
98700,59.60265
98733,59.60265
98767,59.66851
98800,59.66851
98833,59.66851
98867,59.66851
98900,59.66851
98933,59.66851
98967,59.66851
99000,59.66851
99033,59.66851
99067,59.66851
99100,59.66851
99133,59.66851
99167,59.66851
99200,59.66851
99233,59.66851
99267,59.66851
99300,59.66851
99333,59.66851
99367,59.66851
99400,59.66851
99433,59.66851
99467,59.66851
99500,59.66851
99533,59.66851
99567,60.0
99600,60.0
99633,60.0
99667,60.0
99700,60.0
99733,60.0
99767,60.0
99800,60.0
99833,59.34066
99867,59.34066
99900,59.34066
99933,59.34066
99967,59.34066
100000,59.34066
100033,59.34066
100067,59.34066
100100,59.34066
100133,59.34066
100167,59.34066
100200,59.34066
100233,59.34066
100267,59.34066
100300,59.34066
100333,59.34066
100367,59.34066
100400,59.34066
100433,59.34066
100467,59.34066
100500,59.34066
100533,59.34066
100567,59.34066
100600,59.21053000000001
100633,59.21053000000001
100667,59.21053000000001
100700,59.21053000000001
100733,59.21053000000001
100767,59.21053000000001
100800,59.66851
100833,59.66851
100867,59.66851
100900,59.66851
100933,59.66851
100967,59.66851
101000,59.66851
101033,59.66851
101067,59.66851
101100,59.66851
101133,59.66851
101167,59.66851
101200,59.66851
101233,59.66851
101267,59.66851
101300,59.66851
101333,59.66851
101367,59.66851
101400,59.66851
101433,59.66851
101467,59.66851
101500,59.66851
101533,59.66851
101567,59.66851
101600,58.82353000000001
101633,58.82353000000001
101667,58.82353000000001
101700,58.82353000000001
101733,58.82353000000001
101767,59.34066
101800,59.34066
101833,59.34066
101867,59.34066
101900,59.34066
101933,59.34066
101967,59.34066
102000,59.34066
102033,59.34066
102067,59.34066
102100,59.34066
102133,59.34066
102167,59.34066
102200,59.34066
102233,59.34066
102267,59.34066
102300,59.34066
102333,59.34066
102367,59.34066
102400,59.34066
102433,59.34066
102467,59.34066
102500,59.34066
102533,59.60265
102567,59.60265
102600,59.60265
102633,59.60265
102667,59.60265
102700,59.60265
102733,59.60265
102767,59.60265
102800,59.34066
102833,59.34066
102867,59.34066
102900,59.34066
102933,59.34066
102967,59.34066
103000,59.34066
103033,59.34066
103067,59.34066
103100,59.34066
103133,59.34066
103167,59.34066
103200,59.34066
103233,59.34066
103267,59.34066
103300,59.34066
103333,59.34066
103367,59.34066
103400,59.34066
103433,59.34066
103467,59.34066
103500,59.34066
103533,59.34066
103567,59.60265
103600,59.60265
103633,59.60265
103667,59.60265
103700,59.60265
103733,59.60265
103767,60.33519
103800,60.0
103833,60.0
103867,60.0
103900,60.0
103933,60.0
103967,60.0
104000,60.0
104033,60.0
104067,60.0
104100,60.0
104133,60.0
104167,60.0
104200,60.0
104233,60.0
104267,60.0
104300,60.0
104333,60.0
104367,60.0
104400,60.0
104433,60.0
104467,60.0
104500,60.0
104533,60.0
104567,60.0
104600,60.0
104633,60.0
104667,60.0
104700,60.0
104733,60.0
104767,60.0
104800,59.66851
104833,59.66851
104867,59.66851
104900,59.66851
104933,59.66851
104967,59.66851
105000,59.66851
105033,59.66851
105067,59.66851
105100,59.66851
105133,59.66851
105167,59.66851
105200,59.66851
105233,59.66851
105267,59.66851
105300,60.0
105333,60.0
105367,60.0
105400,60.0
105433,60.0
105467,60.0
105500,60.0
105533,60.0
105567,61.76471
105600,62.7907
105633,62.7907
105667,62.7907
105700,62.7907
105733,62.7907
105767,62.7907
105800,62.7907
105833,62.7907
105867,62.7907
105900,62.7907
105933,62.7907
105967,62.7907
106000,62.7907
106033,62.7907
106067,62.7907
106100,62.7907
106133,62.7907
106167,62.7907
106200,62.7907
106233,62.7907
106267,62.7907
106300,62.7907
106333,62.7907
106367,62.7907
106400,62.7907
106433,63.63636
106467,63.63636
106500,63.63636
106533,63.95939
106567,63.95939
106600,63.95939
106633,63.95939
106667,64.28571
106700,64.28571
106733,64.28571
106767,64.28571
106800,64.28571
106833,64.28571
106867,64.28571
106900,64.28571
106933,64.28571
106967,64.28571
107000,64.28571
107033,64.28571
107067,64.28571
107100,64.28571
107133,64.28571
107167,64.28571
107200,64.28571
107233,64.28571
107267,64.94846
107300,65.28497
107333,65.28497
107367,65.28497
107400,65.28497
107433,65.28497
107467,65.28497
107500,65.28497
107533,65.28497
107567,65.28497
107600,65.28497
107633,65.85365999999999
107667,65.85365999999999
107700,65.85365999999999
107733,65.85365999999999
107767,65.85365999999999
107800,65.85365999999999
107833,65.85365999999999
107867,65.85365999999999
107900,65.85365999999999
107933,65.85365999999999
107967,65.85365999999999
108000,65.85365999999999
108033,65.85365999999999
108067,65.85365999999999
108100,65.85365999999999
108133,65.96859
108167,65.96859
108200,65.96859
108233,65.96859
108267,65.96859
108300,65.96859
108333,65.96859
108367,65.96859
108400,65.96859
108433,65.96859
108467,65.96859
108500,65.96859
108533,65.96859
108567,65.96859
108600,67.5
108633,67.5
108667,67.92453
108700,67.92453
108733,67.92453
108767,67.92453
108800,67.92453
108833,67.92453
108867,67.92453
108900,67.92453
108933,67.92453
108967,67.92453
109000,67.92453
109033,67.37968000000001
109067,67.37968000000001
109100,67.37968000000001
109133,67.37968000000001
109167,67.37968000000001
109200,67.37968000000001
109233,67.37968000000001
109267,67.37968000000001
109300,67.37968000000001
109333,67.37968000000001
109367,67.37968000000001
109400,67.37968000000001
109433,67.37968000000001
109467,67.37968000000001
109500,67.37968000000001
109533,67.37968000000001
109567,67.37968000000001
109600,67.37968000000001
109633,68.35443000000001
109667,68.35443000000001
109700,68.35443000000001
109733,68.35443000000001
109767,68.35443000000001
109800,68.35443000000001
109833,68.35443000000001
109867,68.35443000000001
109900,68.35443000000001
109933,68.35443000000001
109967,68.35443000000001
110000,68.35443000000001
110033,68.35443000000001
110067,68.35443000000001
110100,68.35443000000001
110133,65.96859
110167,66.31579
110200,66.31579
110233,66.31579
110267,66.31579
110300,66.31579
110333,65.96859
110367,65.96859
110400,65.96859
110433,65.96859
110467,65.96859
110500,65.96859
110533,65.96859
110567,65.96859
110600,67.08074
110633,67.08074
110667,67.08074
110700,67.08074
110733,67.08074
110767,67.08074
110800,67.08074
110833,67.08074
110867,67.08074
110900,67.08074
110933,67.08074
110967,67.08074
111000,67.08074
111033,67.08074
111067,67.08074
111100,67.08074
111133,67.5
111167,67.5
111200,65.28497
111233,65.28497
111267,65.28497
111300,65.28497
111333,65.28497
111367,65.28497
111400,65.28497
111433,65.28497
111467,65.28497
111500,65.28497
111533,65.28497
111567,65.28497
111600,63.905330000000006
111633,63.905330000000006
111667,63.905330000000006
111700,63.905330000000006
111733,63.905330000000006
111767,63.905330000000006
111800,63.905330000000006
111833,63.905330000000006
111867,63.905330000000006
111900,63.905330000000006
111933,63.905330000000006
111967,63.905330000000006
112000,63.905330000000006
112033,63.905330000000006
112067,64.61539
112100,64.61539
112133,64.61539
112167,64.61539
112200,64.61539
112233,64.61539
112267,64.61539
112300,64.61539
112333,64.61539
112367,64.61539
112400,63.52941
112433,63.52941
112467,63.52941
112500,63.52941
112533,63.52941
112567,63.52941
112600,63.52941
112633,63.52941
112667,63.52941
112700,63.52941
112733,63.52941
112767,63.52941
112800,63.52941
112833,63.52941
112867,63.52941
112900,63.52941
112933,63.52941
112967,63.52941
113000,63.52941
113033,63.31658
113067,63.31658
113100,63.31658
113133,63.31658
113167,63.31658
113200,63.31658
113233,62.06896999999999
113267,62.06896999999999
113300,62.06896999999999
113333,62.06896999999999
113367,62.06896999999999
113400,62.06896999999999
113433,62.06896999999999
113467,62.06896999999999
113500,62.06896999999999
113533,62.06896999999999
113567,62.06896999999999
113600,62.06896999999999
113633,62.06896999999999
113667,62.06896999999999
113700,62.06896999999999
113733,62.06896999999999
113767,62.06896999999999
113800,62.06896999999999
113833,62.06896999999999
113867,62.06896999999999
113900,62.06896999999999
113933,62.06896999999999
113967,62.06896999999999
114000,62.06896999999999
114033,62.06896999999999
114067,61.01695
114100,61.01695
114133,61.01695
114167,61.01695
114200,61.01695
114233,61.01695
114267,61.01695
114300,61.01695
114333,61.01695
114367,61.01695
114400,61.01695
114433,61.01695
114467,61.01695
114500,61.01695
114533,61.01695
114567,61.01695
114600,61.01695
114633,61.01695
114667,61.01695
114700,61.01695
114733,61.01695
114767,61.01695
114800,61.01695
114833,61.01695
114867,61.01695
114900,61.01695
114933,61.01695
114967,61.01695
115000,61.01695
115033,61.01695
115067,61.01695
115100,61.01695
115133,61.01695
115167,61.01695
115200,61.01695
115233,61.01695
115267,61.01695
115300,61.01695
115333,61.01695
115367,61.01695
115400,61.01695
115433,61.01695
115467,61.01695
115500,61.01695
115533,61.01695
115567,61.01695
115600,61.01695
115633,61.01695
115667,61.01695
115700,61.01695
115733,61.01695
115767,61.01695
115800,61.01695
115833,61.01695
115867,62.06896999999999
115900,62.06896999999999
115933,62.06896999999999
115967,61.71429000000001
116000,61.71429000000001
116033,61.36364
116067,61.36364
116100,61.36364
116133,61.36364
116167,61.36364
116200,61.36364
116233,61.36364
116267,61.36364
116300,61.36364
116333,61.36364
116367,61.36364
116400,61.36364
116433,61.71429000000001
116467,61.71429000000001
116500,61.71429000000001
116533,61.71429000000001
116567,61.71429000000001
116600,61.71429000000001
116633,61.71429000000001
116667,61.71429000000001
116700,61.71429000000001
116733,61.71429000000001
116767,61.71429000000001
116800,61.71429000000001
116833,61.71429000000001
116867,61.71429000000001
116900,61.76471
116933,63.15789
116967,63.15789
117000,63.15789
117033,63.15789
117067,63.15789
117100,63.15789
117133,63.15789
117167,63.15789
117200,63.15789
117233,63.15789
117267,63.15789
117300,63.15789
117333,63.15789
117367,63.15789
117400,63.15789
117433,63.15789
117467,63.15789
117500,63.15789
117533,63.15789
117567,63.15789
117600,63.15789
117633,63.15789
117667,63.15789
117700,63.15789
117733,63.15789
117767,63.15789
117800,63.15789
117833,63.15789
117867,63.15789
117900,63.15789
117933,63.15789
117967,62.06896999999999
118000,62.06896999999999
118033,61.01695
118067,61.01695
118100,61.01695
118133,61.01695
118167,61.01695
118200,61.01695
118233,61.01695
118267,61.01695
118300,61.01695
118333,61.01695
118367,61.01695
118400,61.01695
118433,61.01695
118467,61.01695
118500,61.36364
118533,61.36364
118567,61.36364
118600,61.36364
118633,61.36364
118667,61.36364
118700,61.36364
118733,61.36364
118767,61.36364
118800,62.37624
118833,62.37624
118867,62.37624
118900,62.42775
118933,62.42775
118967,62.42775
119000,62.42775
119033,62.42775
119067,62.42775
119100,62.42775
119133,62.42775
119167,62.42775
119200,62.42775
119233,62.42775
119267,62.42775
119300,62.42775
119333,62.42775
119367,62.42775
119400,62.42775
119433,62.42775
119467,62.42775
119500,62.42775
119533,62.42775
119567,62.42775
119600,62.42775
119633,62.42775
119667,63.31658
119700,63.31658
119733,63.31658
119767,63.31658
119800,63.31658
119833,63.31658
119867,63.52941
119900,63.52941
119933,63.52941
119967,63.52941
120000,63.52941
120033,63.52941
120067,63.52941
120100,63.52941
120133,63.52941
120167,63.52941
120200,63.52941
120233,63.52941
120267,63.52941
120300,63.52941
120333,63.52941
120367,63.52941
120400,63.52941
120433,63.52941
120467,63.52941
120500,63.52941
120533,63.52941
120567,63.52941
120600,63.52941
120633,63.52941
120667,63.52941
120700,63.52941
120733,63.52941
120767,63.52941
120800,61.76471
120833,61.36364
120867,61.36364
120900,61.36364
120933,61.36364
120967,61.36364
121000,61.36364
121033,61.36364
121067,61.36364
121100,61.36364
121133,61.36364
121167,61.36364
121200,61.36364
121233,61.36364
121267,61.36364
121300,61.36364
121333,61.36364
121367,61.36364
121400,61.36364
121433,61.36364
121467,61.36364
121500,61.36364
121533,61.36364
121567,61.36364
121600,61.36364
121633,61.36364
121667,61.36364
121700,61.36364
121733,61.36364
121767,61.64384
121800,61.64384
121833,61.01695
121867,61.01695
121900,61.01695
121933,61.01695
121967,61.01695
122000,61.01695
122033,61.01695
122067,61.01695
122100,61.01695
122133,60.67416
122167,60.67416
122200,60.67416
122233,60.67416
122267,60.67416
122300,60.67416
122333,60.67416
122367,60.67416
122400,60.67416
122433,60.67416
122467,60.67416
122500,60.67416
122533,60.67416
122567,60.67416
122600,60.67416
122633,60.67416
122667,60.67416
122700,60.67416
122733,60.67416
122767,60.40268
122800,60.40268
122833,60.40268
122867,60.33519
122900,60.33519
122933,60.33519
122967,60.33519
123000,60.33519
123033,60.33519
123067,60.33519
123100,60.33519
123133,60.33519
123167,60.33519
123200,60.0
123233,60.0
123267,60.0
123300,60.0
123333,60.0
123367,60.0
123400,60.0
123433,60.33519
123467,60.33519
123500,60.33519
123533,60.33519
123567,60.33519
123600,60.33519
123633,60.33519
123667,60.33519
123700,60.33519
123733,60.81081
123767,60.81081
123800,60.81081
123833,60.81081
123867,60.81081
123900,60.33519
123933,60.33519
123967,60.33519
124000,60.33519
124033,60.33519
124067,60.33519
124100,60.33519
124133,60.33519
124167,60.33519
124200,60.33519
124233,60.33519
124267,60.33519
124300,60.33519
124333,60.33519
124367,60.33519
124400,60.33519
124433,60.33519
124467,60.33519
124500,60.33519
124533,60.33519
124567,60.33519
124600,60.33519
124633,60.33519
124667,60.33519
124700,60.33519
124733,60.33519
124767,58.82353000000001
124800,58.82353000000001
124833,58.82353000000001
124867,58.82353000000001
124900,59.01639
124933,59.01639
124967,59.01639
125000,59.01639
125033,59.01639
125067,59.01639
125100,59.01639
125133,59.01639
125167,59.01639
125200,59.01639
125233,59.01639
125267,59.01639
125300,59.01639
125333,59.01639
125367,59.01639
125400,59.01639
125433,59.01639
125467,59.01639
125500,59.01639
125533,59.01639
125567,59.01639
125600,59.01639
125633,57.32484
125667,57.32484
125700,57.32484
125733,57.32484
125767,57.32484
125800,57.32484
125833,57.32484
125867,57.32484
125900,57.32484
125933,57.32484
125967,57.32484
126000,56.84211
126033,56.84211
126067,56.84211
126100,56.84211
126133,56.84211
126167,56.84211
126200,56.84211
126233,56.84211
126267,56.84211
126300,56.84211
126333,56.84211
126367,56.84211
126400,56.84211
126433,56.84211
126467,56.84211
126500,57.69231
126533,57.69231
126567,57.69231
126600,57.69231
126633,57.69231
126667,57.69231
126700,57.69231
126733,57.69231
126767,57.69231
126800,57.69231
126833,57.69231
126867,57.69231
126900,57.69231
126933,57.69231
126967,57.69231
127000,57.69231
127033,57.69231
127067,57.69231
127100,57.69231
127133,56.84211
127167,56.84211
127200,56.84211
127233,56.84211
127267,57.14286
127300,57.14286
127333,57.14286
127367,57.14286
127400,57.14286
127433,57.14286
127467,57.14286
127500,57.14286
127533,57.14286
127567,57.14286
127600,57.14286
127633,57.32484
127667,57.32484
127700,57.32484
127733,57.32484
127767,57.32484
127800,57.32484
127833,57.32484
127867,57.32484
127900,57.32484
127933,57.32484
127967,57.32484
128000,58.69565
128033,58.69565
128067,58.69565
128100,58.69565
128133,58.69565
128167,58.37838000000001
128200,58.37838000000001
128233,58.37838000000001
128267,58.37838000000001
128300,58.69565
128333,58.69565
128367,58.69565
128400,58.69565
128433,58.69565
128467,58.69565
128500,58.69565
128533,58.69565
128567,58.69565
128600,58.69565
128633,58.69565
128667,58.69565
128700,58.44156
128733,58.44156
128767,58.44156
128800,58.44156
128833,58.44156
128867,58.44156
128900,58.44156
128933,58.44156
128967,58.44156
129000,58.44156
129033,58.44156
129067,58.44156
129100,58.44156
129133,58.44156
129167,58.44156
129200,58.44156
129233,58.44156
129267,58.44156
129300,58.44156
129333,58.44156
129367,58.44156
129400,58.44156
129433,58.44156
129467,58.44156
129500,58.44156
129533,58.44156
129567,58.44156
129600,58.44156
129633,58.44156
129667,58.44156
129700,58.53659
129733,58.53659
129767,58.53659
129800,58.53659
129833,58.53659
129867,58.53659
129900,58.53659
129933,58.53659
129967,58.53659
130000,58.53659
130033,58.53659
130067,58.53659
130100,58.53659
130133,58.53659
130167,58.53659
130200,58.53659
130233,58.53659
130267,58.53659
130300,58.53659
130333,58.53659
130367,46.39175
130400,46.39175
130433,46.39175
130467,46.39175
130500,46.39175
130533,46.39175
130567,46.39175
130600,46.63213
130633,46.63213
130667,46.63213
130700,46.63213
130733,44.17178
130767,44.17178
130800,44.17178
130833,44.17178
130867,44.17178
130900,44.17178
130933,44.17178
130967,44.17178
131000,44.17178
131033,44.17178
131067,44.17178
131100,44.17178
131133,44.17178
131167,44.17178
131200,44.17178
131233,44.17178
131267,44.17178
131300,46.875
131333,55.95855
131367,56.25
131400,55.95855
131433,55.95855
131467,55.95855
131500,55.95855
131533,55.95855
131567,55.95855
131600,55.95855
131633,55.95855
131667,55.95855
131700,55.95855
131733,55.90062
131767,44.7205
131800,44.7205
131833,44.7205
131867,44.7205
131900,44.7205
131933,44.7205
131967,44.7205
132000,44.7205
132033,44.7205
132067,44.7205
132100,44.7205
132133,44.7205
132167,44.7205
132200,44.7205
132233,44.7205
132267,44.7205
132300,44.7205
132333,44.7205
132367,46.875
132400,46.875
132433,46.875
132467,46.63213
132500,46.63213
132533,46.63213
132567,46.63213
132600,46.63213
132633,46.63213
132667,46.63213
132700,46.63213
132733,46.63213
132767,46.63213
132800,45.28302
132833,45.28302
132867,45.28302
132900,45.28302
132933,45.28302
132967,45.28302
133000,45.28302
133033,45.28302
133067,45.28302
133100,45.28302
133133,45.28302
133167,45.28302
133200,45.28302
133233,45.28302
133267,45.28302
133300,45.28302
133333,48.12834
133367,48.12834
133400,48.12834
133433,48.12834
133467,48.12834
133500,48.12834
133533,48.12834
133567,48.12834
133600,48.12834
133633,48.12834
133667,48.12834
133700,48.12834
133733,48.12834
133767,48.12834
133800,48.12834
133833,48.12834
133867,48.12834
133900,48.12834
133933,45.0
133967,45.0
134000,45.0
134033,45.0
134067,45.0
134100,45.0
134133,45.0
134167,45.0
134200,45.0
134233,45.0
134267,45.0
134300,47.61905
134333,47.61905
134367,47.61905
134400,47.61905
134433,47.61905
134467,47.61905
134500,47.61905
134533,47.61905
134567,47.61905
134600,47.61905
134633,47.61905
134667,47.61905
134700,47.61905
134733,47.61905
134767,47.61905
134800,47.61905
134833,60.5042
134867,60.5042
134900,60.5042
134933,60.5042
134967,60.5042
135000,60.5042
135033,60.5042
135067,60.5042
135100,60.5042
135133,60.5042
135167,60.5042
135200,60.5042
135233,60.5042
135267,60.5042
135300,60.5042
135333,60.5042
135367,60.5042
135400,60.5042
135433,58.82353000000001
135467,58.44156
135500,58.44156
135533,58.44156
135567,58.44156
135600,58.44156
135633,58.44156
135667,58.44156
135700,58.44156
135733,58.44156
135767,58.44156
135800,58.44156
135833,58.44156
135867,58.44156
135900,58.44156
135933,58.44156
135967,58.44156
136000,58.44156
136033,58.44156
136067,58.44156
136100,58.44156
136133,58.44156
136167,58.44156
136200,58.44156
136233,58.44156
136267,58.44156
136300,58.44156
136333,58.44156
136367,58.44156
136400,58.44156
136433,58.44156
136467,58.69565
136500,58.44156
136533,58.37838000000001
136567,58.37838000000001
136600,58.37838000000001
136633,58.37838000000001
136667,58.37838000000001
136700,58.37838000000001
136733,58.37838000000001
136767,58.37838000000001
136800,58.69565
136833,58.69565
136867,58.69565
136900,58.69565
136933,58.69565
136967,58.69565
137000,58.69565
137033,58.69565
137067,58.69565
137100,58.69565
137133,58.69565
137167,58.69565
137200,58.06452
137233,58.06452
137267,58.06452
137300,58.06452
137333,58.06452
137367,58.06452
137400,58.06452
137433,58.06452
137467,58.06452
137500,58.06452
137533,58.06452
137567,58.06452
137600,58.06452
137633,59.66851
137667,59.66851
137700,59.66851
137733,59.66851
137767,59.66851
137800,59.66851
137833,59.66851
137867,59.66851
137900,59.66851
137933,59.66851
137967,59.66851
138000,59.66851
138033,59.66851
138067,59.66851
138100,59.66851
138133,59.66851
138167,60.40268
138200,60.40268
138233,60.40268
138267,60.40268
138300,61.01695
138333,61.01695
138367,61.01695
138400,61.01695
138433,61.01695
138467,61.01695
138500,61.01695
138533,61.01695
138567,61.01695
138600,61.01695
138633,61.01695
138667,61.01695
138700,61.01695
138733,61.01695
138767,61.01695
138800,61.01695
138833,61.01695
138867,61.01695
138900,61.01695
138933,61.01695
138967,61.01695
139000,61.01695
139033,61.01695
139067,61.01695
139100,61.01695
139133,61.01695
139167,61.01695
139200,61.01695
139233,61.01695
139267,61.01695
139300,61.01695
139333,61.01695
139367,61.01695
139400,61.01695
139433,61.01695
139467,61.01695
139500,61.01695
139533,61.01695
139567,61.01695
139600,61.01695
139633,61.01695
139667,61.01695
139700,61.01695
139733,61.01695
139767,61.01695
139800,61.01695
139833,61.01695
139867,61.01695
139900,61.01695
139933,61.01695
139967,61.01695
140000,61.01695
140033,61.01695
140067,61.01695
140100,61.01695
140133,61.01695
140167,60.81081
140200,60.81081
140233,60.67416
140267,60.67416
140300,60.67416
140333,60.67416
140367,60.67416
140400,60.67416
140433,60.67416
140467,60.67416
140500,60.67416
140533,60.67416
140567,60.67416
140600,60.67416
140633,60.67416
140667,60.67416
140700,61.01695
140733,61.01695
140767,61.01695
140800,61.01695
140833,61.01695
140867,61.01695
140900,61.01695
140933,61.01695
140967,61.01695
141000,61.01695
141033,61.01695
141067,61.01695
141100,61.01695
141133,63.380280000000006
141167,63.15789
141200,63.15789
141233,63.15789
141267,63.15789
141300,63.15789
141333,63.15789
141367,63.15789
141400,63.15789
141433,63.15789
141467,63.15789
141500,63.15789
141533,63.15789
141567,63.15789
141600,63.15789
141633,63.15789
141667,63.15789
141700,63.15789
141733,63.15789
141767,63.15789
141800,63.15789
141833,63.15789
141867,63.15789
141900,63.15789
141933,63.15789
141967,63.15789
142000,63.15789
142033,63.52941
142067,63.52941
142100,63.31658
142133,63.31658
142167,63.31658
142200,63.31658
142233,63.31658
142267,63.31658
142300,64.28571
142333,64.28571
142367,64.28571
142400,64.28571
142433,64.28571
142467,64.28571
142500,64.28571
142533,64.28571
142567,64.28571
142600,64.28571
142633,64.28571
142667,64.28571
142700,64.28571
142733,64.28571
142767,64.28571
142800,64.28571
142833,64.28571
142867,64.28571
142900,64.28571
142933,64.28571
142967,64.28571
143000,64.28571
143033,64.28571
143067,64.28571
143100,64.28571
143133,64.28571
143167,64.28571
143200,64.28571
143233,64.28571
143267,64.28571
143300,64.28571
143333,63.52941
143367,63.52941
143400,63.52941
143433,63.52941
143467,63.52941
143500,63.52941
143533,63.52941
143567,63.52941
143600,63.52941
143633,63.52941
143667,63.52941
143700,63.52941
143733,63.52941
143767,63.52941
143800,63.52941
143833,63.52941
143867,63.52941
143900,63.52941
143933,63.95939
143967,63.95939
144000,63.95939
144033,63.95939
144067,63.95939
144100,63.95939
144133,63.95939
144167,63.95939
144200,63.905330000000006
144233,63.905330000000006
144267,63.905330000000006
144300,63.905330000000006
144333,63.905330000000006
144367,63.905330000000006
144400,63.905330000000006
144433,63.905330000000006
144467,63.905330000000006
144500,63.905330000000006
144533,63.905330000000006
144567,63.905330000000006
144600,63.905330000000006
144633,63.905330000000006
144667,63.905330000000006
144700,63.905330000000006
144733,63.905330000000006
144767,63.905330000000006
144800,63.905330000000006
144833,63.905330000000006
144867,63.905330000000006
144900,63.905330000000006
144933,63.31658
144967,63.31658
145000,63.31658
145033,63.31658
145067,63.31658
145100,63.31658
145133,63.15789
145167,63.15789
145200,63.15789
145233,63.15789
145267,63.15789
145300,63.15789
145333,63.15789
145367,63.15789
145400,63.15789
145433,63.15789
145467,63.15789
145500,63.15789
145533,63.15789
145567,63.15789
145600,63.15789
145633,63.15789
145667,63.15789
145700,63.15789
145733,63.15789
145767,63.15789
145800,63.15789
145833,63.15789
145867,63.15789
145900,63.0
145933,63.0
145967,63.0
146000,63.0
146033,63.0
146067,63.15789
146100,63.15789
146133,63.15789
146167,63.15789
146200,63.15789
146233,63.15789
146267,63.15789
146300,63.15789
146333,63.15789
146367,63.15789
146400,63.15789
146433,63.15789
146467,63.15789
146500,63.15789
146533,63.15789
146567,63.15789
146600,63.15789
146633,63.15789
146667,63.15789
146700,63.15789
146733,63.15789
146767,63.15789
146800,63.63636
146833,63.63636
146867,63.63636
146900,63.63636
146933,63.31658
146967,63.31658
147000,63.31658
147033,63.15789
147067,63.15789
147100,63.15789
147133,63.15789
147167,63.15789
147200,63.52941
147233,63.52941
147267,63.52941
147300,63.52941
147333,63.52941
147367,63.52941
147400,63.52941
147433,63.52941
147467,63.52941
147500,63.52941
147533,63.52941
147567,63.52941
147600,63.52941
147633,63.52941
147667,63.52941
147700,63.52941
147733,63.63636
147767,63.63636
147800,63.63636
147833,63.63636
147867,63.63636
147900,63.63636
147933,63.63636
147967,63.905330000000006
148000,63.905330000000006
148033,63.905330000000006
148067,63.905330000000006
148100,63.905330000000006
148133,63.905330000000006
148167,63.905330000000006
148200,63.905330000000006
148233,63.905330000000006
148267,63.905330000000006
148300,63.905330000000006
148333,63.905330000000006
148367,63.905330000000006
148400,63.905330000000006
148433,63.905330000000006
148467,63.905330000000006
148500,63.905330000000006
148533,63.905330000000006
148567,63.905330000000006
148600,63.905330000000006
148633,63.905330000000006
148667,63.905330000000006
148700,63.63636
148733,63.63636
148767,63.31658
148800,63.31658
148833,63.31658
148867,63.31658
148900,63.31658
148933,63.52941
148967,63.52941
149000,63.52941
149033,63.52941
149067,63.52941
149100,63.52941
149133,63.52941
149167,63.52941
149200,63.52941
149233,63.52941
149267,63.52941
149300,63.52941
149333,63.52941
149367,63.52941
149400,63.52941
149433,63.52941
149467,63.52941
149500,63.52941
149533,63.52941
149567,63.52941
149600,63.95939
149633,63.63636
149667,63.63636
149700,63.63636
149733,63.63636
149767,63.63636
149800,63.63636
149833,63.63636
149867,63.15789
149900,63.15789
149933,63.15789
149967,63.15789
150000,63.15789
150033,63.15789
150067,63.15789
150100,63.15789
150133,63.15789
150167,63.15789
150200,63.15789
150233,63.15789
150267,63.15789
150300,63.15789
150333,63.15789
150367,63.15789
150400,63.15789
150433,63.15789
150467,63.15789
150500,63.15789
150533,63.63636
150567,63.63636
150600,63.63636
150633,63.63636
150667,63.31658
150700,63.31658
150733,63.31658
150767,63.905330000000006
150800,63.905330000000006
150833,63.905330000000006
150867,63.905330000000006
150900,63.905330000000006
150933,63.905330000000006
150967,63.905330000000006
151000,63.905330000000006
151033,63.905330000000006
151067,63.905330000000006
151100,63.905330000000006
151133,63.905330000000006
151167,63.905330000000006
151200,63.905330000000006
151233,63.905330000000006
151267,63.905330000000006
151300,63.905330000000006
151333,63.905330000000006
151367,63.905330000000006
151400,63.905330000000006
151433,63.905330000000006
151467,63.905330000000006
151500,63.905330000000006
151533,63.905330000000006
151567,63.31658
151600,63.31658
151633,63.31658
151667,63.31658
151700,63.31658
151733,63.31658
151767,63.52941
151800,63.52941
151833,63.52941
151867,63.52941
151900,63.52941
151933,63.52941
151967,63.52941
152000,63.52941
152033,63.52941
152067,63.52941
152100,63.52941
152133,63.52941
152167,63.52941
152200,63.52941
152233,63.52941
152267,63.52941
152300,63.52941
152333,63.52941
152367,63.52941
152400,63.52941
152433,63.52941
152467,63.52941
152500,63.52941
152533,63.31658
152567,63.31658
152600,63.31658
152633,63.31658
152667,63.31658
152700,63.31658
152733,62.7907
152767,62.7907
152800,62.7907
152833,62.7907
152867,62.7907
152900,62.7907
152933,62.7907
152967,62.7907
153000,62.7907
153033,62.7907
153067,62.7907
153100,62.7907
153133,62.7907
153167,62.7907
153200,62.7907
153233,62.7907
153267,62.7907
153300,62.7907
153333,62.7907
153367,63.95939
153400,63.63636
153433,63.63636
153467,63.63636
153500,63.63636
153533,63.63636
153567,63.63636
153600,63.63636
153633,63.15789
153667,63.15789
153700,63.15789
153733,63.15789
153767,63.15789
153800,63.15789
153833,63.15789
153867,63.15789
153900,63.15789
153933,63.52941
153967,63.52941
154000,63.52941
154033,63.52941
154067,63.52941
154100,63.52941
154133,63.52941
154167,63.52941
154200,63.52941
154233,63.52941
154267,63.52941
154300,63.52941
154333,63.52941
154367,63.31658
154400,63.31658
154433,63.31658
154467,63.31658
154500,63.31658
154533,63.31658
154567,63.52941
154600,63.52941
154633,63.52941
154667,63.52941
154700,63.52941
154733,63.52941
154767,63.52941
154800,63.52941
154833,63.52941
154867,63.52941
154900,63.52941
154933,63.52941
154967,63.52941
155000,63.52941
155033,63.52941
155067,63.52941
155100,63.52941
155133,63.52941
155167,63.52941
155200,63.52941
155233,63.52941
155267,63.52941
155300,63.52941
155333,63.52941
155367,63.0
155400,63.0
155433,63.0
155467,63.0
155500,63.0
155533,62.7907
155567,62.7907
155600,62.7907
155633,62.7907
155667,62.7907
155700,62.7907
155733,62.7907
155767,62.7907
155800,62.7907
155833,62.7907
155867,62.7907
155900,62.7907
155933,62.7907
155967,62.7907
156000,62.7907
156033,62.7907
156067,62.7907
156100,62.7907
156133,62.7907
156167,62.7907
156200,62.7907
156233,62.7907
156267,62.7907
156300,63.0
156333,63.0
156367,63.0
156400,63.0
156433,63.0
156467,62.42775
156500,62.42775
156533,62.42775
156567,62.42775
156600,62.42775
156633,62.42775
156667,62.42775
156700,62.42775
156733,62.42775
156767,62.42775
156800,62.42775
156833,62.42775
156867,62.42775
156900,62.42775
156933,62.42775
156967,62.42775
157000,62.42775
157033,62.42775
157067,62.42775
157100,62.42775
157133,62.42775
157167,62.42775
157200,63.0
157233,63.0
157267,63.0
157300,63.0
157333,63.0
157367,63.905330000000006
157400,63.905330000000006
157433,63.905330000000006
157467,63.905330000000006
157500,63.905330000000006
157533,63.905330000000006
157567,63.905330000000006
157600,63.905330000000006
157633,63.905330000000006
157667,63.905330000000006
157700,63.905330000000006
157733,63.905330000000006
157767,63.905330000000006
157800,63.905330000000006
157833,63.905330000000006
157867,63.905330000000006
157900,63.905330000000006
157933,63.905330000000006
157967,63.905330000000006
158000,65.28497
158033,64.94846
158067,64.94846
158100,64.94846
158133,64.94846
158167,64.94846
158200,64.94846
158233,64.94846
158267,64.94846
158300,64.94846
158333,64.94846
158367,64.94846
158400,65.45454000000001
158433,65.45454000000001
158467,65.45454000000001
158500,65.45454000000001
158533,65.45454000000001
158567,65.45454000000001
158600,65.45454000000001
158633,65.45454000000001
158667,65.45454000000001
158700,65.45454000000001
158733,65.45454000000001
158767,65.45454000000001
158800,65.45454000000001
158833,65.45454000000001
158867,65.45454000000001
158900,65.45454000000001
158933,65.96859
158967,65.96859
159000,65.96859
159033,65.96859
159067,65.96859
159100,65.96859
159133,65.96859
159167,65.96859
159200,65.96859
159233,65.96859
159267,65.96859
159300,65.96859
159333,65.96859
159367,65.45454000000001
159400,65.45454000000001
159433,65.45454000000001
159467,65.45454000000001
159500,65.45454000000001
159533,65.45454000000001
159567,65.45454000000001
159600,65.45454000000001
159633,65.45454000000001
159667,65.45454000000001
159700,66.66666
159733,66.66666
159767,66.66666
159800,66.66666
159833,66.66666
159867,66.66666
159900,66.66666
159933,66.66666
159967,66.66666
160000,66.66666
160033,66.66666
160067,66.66666
160100,66.66666
160133,66.66666
160167,66.66666
160200,66.66666
160233,67.5
160267,67.5
160300,67.5
160333,67.5
160367,67.5
160400,69.61326
160433,69.61326
160467,69.61326
160500,69.61326
160533,69.61326
160567,69.61326
160600,69.61326
160633,69.61326
160667,69.61326
160700,69.61326
160733,69.61326
160767,69.61326
160800,69.61326
160833,69.61326
160867,69.61326
160900,69.61326
160933,69.61326
160967,69.61326
161000,69.61326
161033,69.61326
161067,69.61326
161100,69.61326
161133,69.61326
161167,69.61326
161200,71.52318000000002
161233,71.59091
161267,71.59091
161300,71.59091
161333,71.59091
161367,71.59091
161400,71.59091
161433,71.59091
161467,71.59091
161500,71.59091
161533,71.59091
161567,71.59091
161600,71.59091
161633,71.59091
161667,71.59091
161700,71.59091
161733,71.59091
161767,71.59091
161800,71.59091
161833,71.59091
161867,71.59091
161900,72.0
161933,72.0
161967,72.0
162000,72.0
162033,72.0
162067,72.0
162100,72.0
162133,70.93596
162167,70.93596
162200,72.0
162233,72.0
162267,72.0
162300,72.0
162333,72.0
162367,72.0
162400,72.0
162433,72.0
162467,72.0
162500,72.0
162533,72.0
162567,72.0
162600,72.0
162633,72.0
162667,72.0
162700,72.0
162733,72.0
162767,72.0
162800,72.0
162833,72.0
162867,72.0
162900,72.0
162933,72.0
162967,72.0
163000,72.0
163033,72.0
163067,61.71429000000001
163100,61.71429000000001
163133,60.81081
163167,60.33519
163200,60.33519
163233,60.33519
163267,60.33519
163300,60.33519
163333,60.33519
163367,60.33519
163400,60.33519
163433,60.33519
163467,60.33519
163500,60.33519
163533,60.33519
163567,60.33519
163600,60.33519
163633,60.33519
163667,60.33519
163700,60.33519
163733,60.33519
163767,60.33519
163800,60.33519
163833,60.33519
163867,60.33519
163900,60.33519
163933,60.33519
163967,60.33519
164000,60.33519
164033,58.06452
164067,58.06452
164100,58.06452
164133,58.06452
164167,58.06452
164200,58.06452
164233,57.75401
164267,57.75401
164300,57.75401
164333,57.75401
164367,57.75401
164400,57.75401
164433,57.75401
164467,57.75401
164500,57.75401
164533,57.75401
164567,57.75401
164600,57.75401
164633,57.75401
164667,57.75401
164700,57.75401
164733,57.75401
164767,57.75401
164800,57.75401
164833,56.60378000000001
164867,56.60378000000001
164900,56.60378000000001
164933,56.60378000000001
164967,56.60378000000001
165000,56.60378000000001
165033,56.60378000000001
165067,56.60378000000001
165100,58.37838000000001
165133,58.37838000000001
165167,58.37838000000001
165200,58.37838000000001
165233,58.37838000000001
165267,58.37838000000001
165300,58.06452
165333,58.06452
165367,58.06452
165400,58.37838000000001
165433,58.37838000000001
165467,58.37838000000001
165500,58.37838000000001
165533,58.37838000000001
165567,58.37838000000001
165600,58.37838000000001
165633,58.37838000000001
165667,58.37838000000001
165700,58.37838000000001
165733,58.37838000000001
165767,63.82979
165800,63.82979
165833,63.82979
165867,63.82979
165900,63.82979
165933,63.82979
165967,63.82979
166000,64.28571
166033,64.28571
166067,64.28571
166100,64.28571
166133,64.28571
166167,64.28571
166200,64.28571
166233,64.28571
166267,64.28571
166300,64.28571
166333,64.28571
166367,64.28571
166400,64.28571
166433,64.28571
166467,64.28571
166500,64.28571
166533,64.28571
166567,64.28571
166600,64.28571
166633,64.28571
166667,64.28571
166700,64.28571
166733,64.28571
166767,64.28571
166800,64.28571
166833,64.28571
166867,64.28571
166900,64.28571
166933,64.28571
166967,63.95939
167000,63.95939
167033,63.95939
167067,63.95939
167100,63.95939
167133,63.95939
167167,63.95939
167200,63.95939
167233,62.42775
167267,62.42775
167300,62.42775
167333,62.42775
167367,62.42775
167400,62.42775
167433,62.42775
167467,62.42775
167500,62.42775
167533,62.42775
167567,62.42775
167600,62.42775
167633,62.42775
167667,62.42775
167700,62.42775
167733,62.42775
167767,62.42775
167800,62.42775
167833,62.42775
167867,62.42775
167900,62.42775
167933,62.42775
167967,62.42775
168000,61.76471
168033,61.36364
168067,61.36364
168100,61.36364
168133,61.36364
168167,61.36364
168200,61.36364
168233,61.36364
168267,61.36364
168300,61.36364
168333,61.36364
168367,61.36364
168400,61.36364
168433,61.36364
168467,61.36364
168500,61.36364
168533,61.36364
168567,61.36364
168600,61.36364
168633,61.36364
168667,61.36364
168700,61.36364
168733,61.36364
168767,61.36364
168800,61.36364
168833,61.36364
168867,61.36364
168900,61.36364
168933,61.76471
168967,62.42775
169000,62.42775
169033,62.42775
169067,62.42775
169100,62.42775
169133,62.42775
169167,62.42775
169200,62.42775
169233,62.42775
169267,62.42775
169300,62.42775
169333,62.42775
169367,62.42775
169400,62.42775
169433,62.42775
169467,62.42775
169500,62.42775
169533,62.42775
169567,62.42775
169600,62.42775
169633,62.42775
169667,62.42775
169700,62.42775
169733,62.42775
169767,62.42775
169800,62.42775
169833,62.42775
169867,62.42775
169900,62.37624
169933,62.37624
169967,62.37624
170000,63.52941
170033,63.52941
170067,63.52941
170100,63.52941
170133,63.52941
170167,63.52941
170200,63.52941
170233,63.52941
170267,63.52941
170300,63.52941
170333,63.52941
170367,63.52941
170400,63.52941
170433,63.52941
170467,63.52941
170500,63.52941
170533,63.52941
170567,63.52941
170600,63.52941
170633,63.52941
170667,63.52941
170700,63.52941
170733,63.52941
170767,63.52941
170800,63.95939
170833,63.95939
170867,63.95939
170900,63.95939
170933,63.95939
170967,63.95939
171000,63.95939
171033,63.15789
171067,63.15789
171100,63.15789
171133,63.15789
171167,63.15789
171200,63.15789
171233,63.15789
171267,63.15789
171300,63.15789
171333,63.15789
171367,63.15789
171400,63.15789
171433,63.15789
171467,63.15789
171500,63.15789
171533,63.15789
171567,63.15789
171600,63.15789
171633,63.15789
171667,63.15789
171700,63.15789
171733,63.31658
171767,63.31658
171800,63.31658
171833,63.31658
171867,63.31658
171900,63.31658
171933,62.7907
171967,62.7907
172000,62.7907
172033,62.7907
172067,62.7907
172100,62.7907
172133,62.7907
172167,62.7907
172200,62.7907
172233,62.7907
172267,62.7907
172300,62.7907
172333,62.7907
172367,62.7907
172400,62.7907
172433,62.7907
172467,62.7907
172500,62.7907
172533,62.7907
172567,62.7907
172600,62.7907
172633,62.7907
172667,62.7907
172700,62.7907
172733,62.7907
172767,62.06896999999999
172800,62.06896999999999
172833,62.06896999999999
172867,62.06896999999999
172900,62.06896999999999
172933,62.06896999999999
172967,62.42775
173000,62.42775
173033,62.42775
173067,62.42775
173100,62.42775
173133,62.42775
173167,62.42775
173200,62.42775
173233,62.42775
173267,62.42775
173300,62.42775
173333,62.42775
173367,62.42775
173400,62.42775
173433,62.42775
173467,62.42775
173500,62.42775
173533,62.42775
173567,62.42775
173600,63.31658
173633,63.31658
173667,63.31658
173700,63.31658
173733,63.31658
173767,63.31658
173800,64.28571
173833,64.28571
173867,64.28571
173900,64.28571
173933,64.28571
173967,64.28571
174000,64.28571
174033,64.28571
174067,64.28571
174100,64.28571
174133,64.28571
174167,64.28571
174200,64.28571
174233,64.28571
174267,64.28571
174300,64.28571
174333,64.28571
174367,64.28571
174400,64.28571
174433,64.28571
174467,64.28571
174500,64.28571
174533,64.61539
174567,64.61539
174600,64.61539
174633,64.61539
174667,64.61539
174700,64.61539
174733,64.94846
174767,64.94846
174800,64.94846
174833,65.06024000000001
174867,65.06024000000001
174900,65.06024000000001
174933,65.06024000000001
174967,65.06024000000001
175000,65.06024000000001
175033,65.06024000000001
175067,65.06024000000001
175100,65.06024000000001
175133,65.06024000000001
175167,65.06024000000001
175200,67.02128
175233,67.02128
175267,67.02128
175300,67.02128
175333,67.02128
175367,67.02128
175400,67.02128
175433,67.02128
175467,67.02128
175500,67.02128
175533,67.02128
175567,67.02128
175600,67.02128
175633,67.02128
175667,67.02128
175700,67.02128
175733,67.02128
175767,67.92453
175800,67.92453
175833,67.92453
175867,67.92453
175900,67.92453
175933,67.92453
175967,67.92453
176000,67.92453
176033,67.92453
176067,67.92453
176100,67.92453
176133,67.37968000000001
176167,67.37968000000001
176200,67.37968000000001
176233,67.37968000000001
176267,67.37968000000001
176300,67.37968000000001
176333,67.37968000000001
176367,67.37968000000001
176400,67.37968000000001
176433,67.37968000000001
176467,67.37968000000001
176500,67.37968000000001
176533,67.37968000000001
176567,67.37968000000001
176600,67.37968000000001
176633,67.37968000000001
176667,67.37968000000001
176700,67.37968000000001
176733,67.5
176767,67.5
176800,67.5
176833,67.5
176867,67.5
176900,67.5
176933,67.5
176967,67.5
177000,67.5
177033,67.5
177067,67.5
177100,66.66666
177133,66.66666
177167,66.66666
177200,66.66666
177233,66.66666
177267,66.66666
177300,66.66666
177333,66.66666
177367,66.66666
177400,66.66666
177433,66.66666
177467,66.66666
177500,66.66666
177533,66.66666
177567,66.66666
177600,66.66666
177633,66.66666
177667,66.66666
177700,66.66666
177733,66.66666
177767,66.66666
177800,66.66666
177833,66.66666
177867,66.66666
177900,66.66666
177933,66.66666
177967,66.66666
178000,66.66666
178033,66.66666
178067,66.66666
178100,66.66666
178133,66.66666
178167,66.66666
178200,66.66666
178233,66.66666
178267,66.66666
178300,66.66666
178333,66.66666
178367,66.66666
178400,66.66666
178433,66.66666
178467,66.66666
178500,66.66666
178533,66.66666
178567,66.66666
178600,66.66666
178633,66.66666
178667,66.66666
178700,66.66666
178733,66.66666
178767,66.66666
178800,66.66666
178833,66.66666
178867,66.66666
178900,66.66666
178933,66.66666
178967,66.66666
179000,66.66666
179033,66.66666
179067,66.66666
179100,66.66666
179133,66.66666
179167,66.66666
179200,66.66666
179233,66.66666
179267,66.66666
179300,66.66666
179333,66.66666
179367,66.66666
179400,66.66666
179433,66.66666
179467,66.66666
179500,66.66666
179533,66.66666
179567,66.66666
179600,66.66666
179633,66.66666
179667,66.66666
179700,66.66666
179733,66.66666
179767,66.66666
179800,66.66666
179833,66.66666
179867,66.66666
179900,66.66666
179933,66.66666
179967,66.66666
180000,66.66666
180033,66.66666
180067,66.66666
180100,66.66666
180133,66.66666
180167,66.66666
180200,66.66666
180233,66.66666
180267,66.66666
180300,66.66666
180333,66.66666
180367,66.66666
180400,66.66666
180433,66.66666
180467,66.66666
180500,66.66666
180533,66.66666
180567,66.66666
180600,66.66666
180633,66.66666
180667,66.66666
180700,66.66666
180733,66.66666
180767,66.66666
180800,66.66666
180833,66.66666
180867,66.66666
180900,66.66666
180933,66.66666
180967,66.66666
181000,66.66666
181033,66.66666
181067,66.66666
181100,66.66666
181133,66.66666
181167,66.66666
181200,66.66666
181233,66.66666
181267,66.66666
181300,66.66666
181333,66.66666
181367,66.66666
181400,66.66666
181433,66.66666
181467,66.66666
181500,66.66666
181533,66.66666
181567,66.66666
181600,66.66666
181633,66.66666
181667,66.66666
181700,66.66666
181733,66.66666
181767,66.66666
181800,66.66666
181833,66.66666
181867,66.66666
181900,66.66666
181933,66.66666
181967,66.66666
182000,66.66666
182033,66.66666
182067,66.66666
182100,66.66666
182133,66.66666
182167,66.66666
182200,66.66666
182233,66.66666
182267,66.66666
182300,66.66666
182333,66.66666
182367,66.66666
182400,66.66666
182433,66.66666
182467,66.66666
182500,66.66666
182533,66.66666
182567,66.66666
182600,66.66666
182633,66.66666
182667,66.66666
182700,66.66666
182733,66.66666
182767,66.66666
182800,66.66666
182833,66.66666
182867,66.66666
182900,66.66666
182933,66.66666
182967,66.66666
183000,66.66666
183033,66.66666
183067,66.66666
183100,66.66666
183133,66.66666
183167,66.66666
183200,66.66666
183233,66.66666
183267,66.66666
183300,66.66666
183333,66.66666
183367,66.66666
183400,66.66666
183433,66.66666
183467,66.66666
183500,66.66666
183533,66.66666
183567,66.66666
183600,66.66666
183633,66.66666
183667,66.66666
183700,66.66666
183733,66.66666
183767,66.66666
183800,66.66666
183833,66.66666
183867,66.66666
183900,66.66666
183933,66.66666
183967,66.66666
184000,66.66666
184033,66.66666
184067,66.66666
184100,66.66666
184133,66.66666
184167,66.66666
184200,66.66666
184233,66.66666
