B,G,R,Time[ms]
164.2550702644599,81.6176791388059,2.111379839079369,0.0
164.25462765368866,81.61723652803464,2.1112849939141016,33.333333333333336
164.29230696857553,81.44103995483911,2.2582638148403684,66.66666666666667
163.86075393589658,81.54835978172237,2.2212569779840683,100.0
163.95220829556465,81.37308161160253,2.320429468946332,133.33333333333334
163.58565936298564,81.34990466664583,2.274763229456444,166.66666666666666
163.8918982277373,81.21784452849059,2.337480073766136,200.0
163.88153658612822,81.22717469446441,2.340496358578439,233.33333333333331
163.52264983434608,81.1775715609151,2.2210812253678145,266.6666666666667
163.75524047293794,81.08245010755726,2.2723161712751425,300.0
163.64835995840818,81.13008475911397,2.1891798216592617,333.3333333333333
164.29837413744212,80.98451334404639,2.262217600907458,366.6666666666666
163.92463055739358,80.8748621482812,2.215190471689196,400.0
163.91418533572804,80.88028169014085,2.2183256136370804,433.33333333333337
164.3387213662287,80.83763430696034,2.269385890285786,466.66666666666674
163.86936383401078,81.04403377760973,2.18804549894445,500.0
164.23562403503797,81.01570721870372,2.2208463307811077,533.3333333333334
163.8896713615024,81.1423732551911,2.163563033683083,566.6666666666666
164.77282388021825,81.20608108108107,2.188316837964725,600.0
164.80682971704098,81.22720784164444,2.1836537241466822,633.3333333333333
163.92916784825286,81.11960802848411,2.2368686391278323,666.6666666666666
164.51208485480782,81.18795150250548,2.286527244273723,700.0
164.21294320355352,81.32487630609695,2.2084696732584046,733.3333333333333
164.51170547414674,81.34574224245587,2.2370971056417064,766.6666666666667
163.99489554778341,81.3219270882566,2.2306771276428146,800.0
164.01031918580838,81.31050508869774,2.245234269149573,833.3333333333335
164.5326905504616,81.35091533541294,2.3100009452689294,866.6666666666667
163.8128503462245,81.38725328559987,2.2682651090489423,900.0
164.47118505214738,81.36326684941866,2.2959479471909763,933.3333333333336
163.8488388525131,81.43803287955156,2.2857412030712703,966.6666666666664
164.42337019882157,81.45031036329837,2.33117496927876,1000.0
164.43994391404357,81.45837665815925,2.328354916973879,1033.3333333333335
164.05047736080917,81.45083026120932,2.2400195355578663,1066.6666666666667
164.33752402558528,81.31116677694806,2.3090241673756187,1100.0
163.63249956820073,81.24758584954544,2.2515112974390377,1133.3333333333333
164.11330623562404,81.29037086050981,2.321580489649305,1166.6666666666667
163.73549799918078,81.23938935627187,2.2969247250842866,1200.0
163.731638151054,81.24463559882788,2.278381699593534,1233.3333333333335
164.11538582726791,81.17005388032895,2.331899675457668,1266.6666666666665
163.51415516510434,81.19806239891972,2.317521629217893,1300.0
164.31595613952172,81.28233607461324,2.3404543592652107,1333.3333333333333
163.836481542544,81.18342832917236,2.293654906024777,1366.6666666666667
163.385501606128,81.06517173214728,2.4778848529775144,1400.0
163.42769335310106,81.06495552260935,2.4948881887818137,1433.333333333333
163.2535056322534,81.29715365902787,2.397604549187313,1466.6666666666665
163.74243362010276,81.2851240948196,2.5222504177755773,1500.0
163.6852744373216,81.37819163040257,2.363124483334113,1533.3333333333335
163.8788151644053,81.51055671127395,2.4684230136305767,1566.666666666667
163.93261345852898,81.63399061032864,2.3206103286384976,1600.0
163.91242566510172,81.62413145539907,2.323740219092332,1633.333333333333
164.26039123630673,81.59718309859154,2.4820813771518,1666.666666666667
163.73900768954815,81.65325285043595,2.419103769906259,1700.0
164.16381619937695,81.71579439252335,2.4530062305295948,1733.3333333333335
164.04324383458882,81.83321351545649,2.345231769449567,1766.6666666666665
164.09345794392522,81.80979750778815,2.3894392523364485,1800.0
164.12565420560747,81.80593457943925,2.3795794392523364,1833.333333333333
163.5751246105919,81.76331775700935,2.3552024922118378,1866.666666666667
163.87817757009344,81.69707165109034,2.3881619937694705,1900.0
163.38633350490542,81.5784474287586,2.2549248982265686,1933.333333333333
163.7085628520146,81.57345113573066,2.4091106022157582,1966.6666666666665
163.5182738132079,81.4555301107879,2.3750541560933343,2000.0
163.51550411586308,81.4493563161478,2.383084731076314,2033.333333333333
163.75717955065917,81.34477316333478,2.4227888840750142,2066.666666666667
163.1255183511791,81.24668874172184,2.4431361019991336,2100.0
163.6631788120595,81.07386592976681,2.4949079392678613,2133.333333333333
163.21981246312913,81.03167013382183,2.3928028068432328,2166.6666666666665
163.68557632398753,81.12230529595016,2.3705295950155763,2200.0
163.72107476635514,81.11880062305295,2.3717133956386287,2233.333333333333
163.13458914728682,81.18426356589147,2.357488372093023,2266.6666666666665
163.6590965732087,81.20693146417445,2.3832087227414327,2300.0
163.02098130841117,81.16721183800622,2.3413395638629284,2333.333333333333
163.31174454828658,81.15853582554517,2.4019470404984418,2366.6666666666665
162.91503115264797,81.32694704049844,2.290342679127726,2400.0
162.8892367601246,81.32757009345794,2.288676012461059,2433.333333333333
163.92731919964874,81.3927585774321,2.2980618453239665,2466.666666666667
163.4708443889496,81.39929764320273,2.315170906820665,2500.0
163.88160948378598,81.3421721131531,2.3169886470551337,2533.333333333333
163.51210562629362,81.49215956846264,2.265288841497836,2566.666666666667
163.82540927052622,81.55229567835411,2.3688923038324026,2600.0
163.83419055384806,81.55110393276045,2.379445524681678,2633.333333333333
163.34712033713126,81.51941626346185,2.327423130950523,2666.6666666666665
163.53759950054624,81.40382394256281,2.3721086311846418,2700.0
162.77128412537917,81.32010577895309,2.334712607917865,2733.333333333333
162.5418853044369,81.00037258980967,2.4178594715434536,2766.666666666666
162.6530491044916,81.0099865595599,2.3255868471228083,2800.0
162.64848560622636,81.01823836464227,2.3177413809270777,2833.333333333333
163.51431763114002,81.09421315963372,2.2576072248969443,2866.666666666666
162.8072078267121,80.96280436345451,2.3000343825211766,2900.0
162.9854049844237,80.99580996884734,2.374454828660436,2933.333333333333
162.96222148947194,81.07513307268358,2.211581641465291,2966.666666666667
163.45717336348076,81.03795123023535,2.2313187934743355,3000.0
163.46596636676242,81.05222415877651,2.2384474068491214,3033.333333333333
163.2479928495264,81.22834472809383,2.251050617826005,3066.666666666667
163.37649445918527,81.28478226939285,2.3798657718120806,3100.0
163.00551966380232,81.28907671078215,2.2552687699931,3133.333333333333
163.30499278680296,81.26690397039452,2.340164962679545,3166.666666666666
162.917299128144,81.27775512764222,2.2533557046979857,3200.0
162.89354262058583,81.27606159443016,2.2376121181709836,3233.333333333333
163.09187947363486,81.18358703466383,2.342309255149564,3266.666666666666
162.63278220044907,81.21209980058724,2.1911065052522494,3300.0
163.1930471053127,81.21559618641409,2.2937809697045717,3333.333333333333
162.66006626449538,81.22529928421842,2.3105523083174444,3366.666666666666
163.24783604089566,81.37507056388381,2.2844665370381985,3400.0
163.26985197265256,81.36415668318384,2.2943611616383364,3433.333333333333
162.47026479750778,81.38102803738317,2.2519781931464173,3466.666666666667
162.68522480620155,81.38043410852713,2.333813953488372,3500.0
162.1016611295681,81.24841226918025,2.2853897859847017,3533.333333333333
162.77504672897194,81.28471962616823,2.2319470404984423,3566.666666666667
162.44911214953268,81.23630841121495,2.2165732087227408,3600.0
162.4680218068536,81.23683800623054,2.220514018691589,3633.333333333334
163.50340296814448,81.26850363928537,2.181822478495132,3666.666666666666
162.785251572327,81.12294025157232,2.1609119496855347,3700.0
163.57561415727494,81.21093453210081,2.1240661010510324,3733.333333333334
163.12941623401292,81.2387615550209,2.100639483348107,3766.666666666666
163.28002016573714,81.23524592746638,2.1903614078205247,3800.0
163.29689321612,81.23204776758989,2.1790654441188515,3833.333333333334
162.93068027853926,81.29191479976053,2.1110690991587107,3866.666666666666
163.04968046854142,81.15499238463109,2.2129791009154145,3900.0
163.29090592940358,81.20636727209497,2.1315818592813898,3933.333333333333
163.59150187319202,81.20709441836202,2.254532808523418,3966.666666666667
163.18110684307862,81.29093754445866,2.2039329128531,4000.0
162.93225572675428,81.22547814853327,2.221823108674418,4033.333333333333
163.2906071777421,81.27176481709047,2.2532060371175597,4066.666666666666
162.83851655796076,81.37839115228283,2.1522040520528094,4100.0
162.23202087650625,81.20392969529513,2.4384219817330566,4133.333333333334
162.27620986397704,81.25690139107368,2.396024181857438,4166.666666666667
162.29514572060992,81.09408817019181,2.4275547220855875,4200.0
162.3096870388588,81.11316404328578,2.4362856615838657,4233.333333333333
161.90064921985154,81.10427803343714,2.2963014611320287,4266.666666666667
161.56674249877028,80.84310440236105,2.4914227742252826,4300.0
161.05744281849482,80.80206283817019,2.4768353418593207,4333.333333333333
161.58295549181085,80.86923598901946,2.545279294284569,4366.666666666666
161.73685844692147,80.97762908684447,2.44825659018226,4400.0
161.72189275623313,80.97320458285465,2.431490048747167,4433.333333333334
162.01070383489912,80.95914061296781,2.5947481903588483,4466.666666666667
161.96478405315614,81.06077416364056,2.4856988333462104,4500.0
162.93649532710282,81.21741433021806,2.4099376947040496,4533.333333333333
162.24150978220746,81.30489417989419,2.473560354374308,4566.666666666666
162.8426851851852,81.27905864197531,2.534645061728395,4600.0
163.12159358355012,81.33756038647344,2.507912176390437,4633.333333333334
162.8230521491391,81.31318902514555,2.4516753375449034,4666.666666666667
163.0215740740741,81.28496913580247,2.5505555555555555,4700.0
162.58778294573645,81.33333333333333,2.450062015503876,4733.333333333333
162.89941085271317,81.22496124031008,2.5239224806201546,4766.666666666667
162.38811728395063,81.26702160493828,2.5159259259259246,4800.0
162.40185185185192,81.25472222222223,2.5240123456790124,4833.333333333333
162.52970038144457,81.25804417374185,2.56807555063369,4866.666666666666
162.03222744461624,81.20977693402942,2.573924093268215,4900.0
162.2991104919087,81.18569438277936,2.607100754780532,4933.333333333334
161.82854989541036,80.99909253106928,2.5303156146179404,4966.666666666667
162.3793023255814,80.93858914728682,2.506108527131783,5000.0
162.40178294573644,80.9437984496124,2.4976279069767444,5033.333333333333
161.7585978835979,80.72289897871293,2.523563430540175,5066.666666666666
162.76761348469861,80.7776783330978,2.3497731091117497,5100.0
161.723591116033,80.64813276731881,2.577411714039621,5133.333333333334
163.1356237847331,80.8727341152857,2.4624129712099347,5166.666666666667
162.71562754814022,80.93081603211441,2.415919212193439,5200.0
162.24032710280372,80.80644859813084,2.453380062305296,5233.333333333333
163.02715925484537,80.98105751740574,2.4316000752681424,5266.666666666667
162.68627297246442,80.97536536410962,2.4031863513767795,5300.0
162.96870099730288,81.06488741140312,2.412014677287837,5333.333333333333
162.39650861125867,80.98008939455504,2.3801144000250054,5366.666666666666
162.55956386292834,80.92733644859813,2.458208722741433,5400.0
162.5892523364486,80.91998442367601,2.440778816199377,5433.333333333334
162.0877519379845,80.98,2.439751937984496,5466.666666666667
162.2681715155091,80.94403390567268,2.454885583879281,5500.0
161.73049155145932,81.03390168970813,2.511428571428572,5533.333333333332
162.0736405529954,80.91311827956989,2.573594470046083,5566.666666666666
161.76447530864198,80.84777777777778,2.435787037037037,5600.0
161.64625192012292,80.8547926267281,2.4867588325652843,5633.333333333334
162.1901851851852,80.65038580246913,2.4980092592592595,5666.666666666668
161.88607085346217,80.63718568066396,2.4258020562368388,5700.0
161.95199074074077,80.52615740740741,2.496095679012346,5733.333333333332
161.62104938271602,80.50873456790123,2.4534413580246914,5766.666666666668
161.87947582133629,80.42695644149133,2.521394733604036,5800.0
162.12762345679013,80.50626543209877,2.489429012345679,5833.333333333332
162.19513105701176,80.58495761064013,2.3985533172590805,5866.666666666666
162.23609567901238,80.60214506172841,2.518611111111112,5900.0
162.20974235104669,80.73261179239441,2.449399232007928,5933.333333333334
162.45703805311095,80.73772791023843,2.5615800749040583,5966.666666666668
161.78435935514491,80.6314435751795,2.5552306443957926,6000.0
161.96854070660518,80.7000307219662,2.511351766513057,6033.333333333332
162.63851856418478,80.7738082394464,2.4692754650678914,6066.666666666666
162.05491551459292,80.72081413210445,2.4545007680491557,6100.0
162.83031400966183,80.90113650439737,2.4206924315619966,6133.333333333334
162.3341861504554,81.03563337083673,2.415409275156821,6166.666666666668
162.78558156819028,81.02511457946241,2.427892357240184,6200.0
162.80589619720055,81.03505512201164,2.424160782856436,6233.333333333332
162.65495577157503,81.08489357046855,2.28928203044416,6266.666666666668
162.76196890870804,81.00151740369131,2.458565589000372,6300.0
162.55955510616786,80.8803920043556,2.400777786419849,6333.333333333332
162.66930232558138,80.74796899224806,2.499550387596899,6366.666666666666
162.22024691358024,80.7337962962963,2.4731327160493826,6400.0
162.67749195136437,80.79301722251742,2.3440908948832555,6433.333333333334
163.20936768885332,80.73542481197104,2.2888972631777285,6466.666666666668
162.45093457943926,80.80518691588784,2.2867133956386287,6500.0
163.24549751126602,80.80085417746164,2.2456859327649283,6533.333333333332
163.1898257554274,80.91780886662256,2.1582537731984752,6566.666666666666
163.28464788732398,80.74089201877935,2.265179968701096,6600.0
163.28012519561815,80.75286384976526,2.270798122065728,6633.333333333334
162.85605633802817,80.89982785602504,2.2076525821596245,6666.666666666668
162.89957152171888,80.81884372962398,2.292032787903251,6700.0
163.31614816684547,81.06196756483878,2.058370669527356,6733.333333333332
163.23501557632397,81.09119937694703,2.2674454828660435,6766.666666666668
163.0156181533646,81.06406885758999,2.2509233176838808,6800.0
162.9976682316119,81.05826291079812,2.2531611893583725,6833.333333333332
163.32694835680755,81.11976525821595,2.3024100156494525,6866.666666666666
162.62047070512622,81.15405036172261,2.28590058061912,6900.0
163.0654049844237,81.14017133956385,2.3516510903426795,6933.333333333334
162.54962332132328,81.00363420835087,2.3038541325472206,6966.666666666668
163.0840375586854,80.90126760563379,2.316697965571205,7000.0
163.0888262910798,80.90483568075119,2.309295774647888,7033.333333333332
162.51859997192457,80.8219861806498,2.225726451733657,7066.666666666666
163.21524256651017,80.86830985915493,2.237042253521127,7100.0
162.51192425873066,80.71813828708686,2.298722567965936,7133.333333333334
162.83240528441968,80.59724236894233,2.470201051268853,7166.666666666668
162.51728978522297,80.74627610624991,2.3698781838316716,7200.0
162.5108948263223,80.75912841389422,2.3615023474178405,7233.333333333332
162.8564132020989,80.8822926692955,2.4298289191790605,7266.666666666668
162.82386292834892,81.07232087227412,2.3212149532710282,7300.0
163.2483644859813,81.0963707165109,2.355467289719626,7333.333333333332
162.80088372093024,81.1575503875969,2.3583410852713182,7366.666666666666
162.74811335284153,81.16970583705529,2.47332511935931,7400.0
162.76279069767443,81.1858000924072,2.4691513938087173,7433.333333333334
162.609225063741,81.3810863014757,2.3912076025650935,7466.666666666668
162.76677960880951,81.39992299399353,2.5860311104266134,7500.0
162.49087082998082,81.45132140867736,2.482205855047348,7533.333333333332
162.6056522408748,81.39990759279226,2.573633143385184,7566.666666666666
162.20354593598896,81.33494512241923,2.6475401028474943,7600.0
162.20466651316298,81.33198250057566,2.6464502264179908,7633.333333333334
162.42772888399955,81.33629751864076,2.7396864686468647,7666.666666666668
162.28458425312732,81.41852158449841,2.6110957812116737,7700.0
162.36213482459357,81.38181457034592,2.6996699669967,7733.333333333332
161.9267051705171,81.38676506539544,2.586343356557878,7766.666666666668
162.36153893167096,81.38157010145459,2.651769343601027,7800.0
162.38743735484658,81.38406062828507,2.6356802346901356,7833.333333333332
161.98507211832296,81.57806197286395,2.521482703825938,7866.666666666666
162.63683468236445,81.59125889134167,2.5819383124846698,7900.0
162.6270148886428,81.70245785652763,2.490817644887412,7933.333333333334
162.89925190090753,81.6552305616875,2.5341703458425298,7966.666666666668
162.99187205439233,81.72619949007183,2.374086378737541,8000.0
162.94835818589198,81.73536274434056,2.3637951015993197,8033.333333333332
163.52864096422778,81.74769373406473,2.406335470910917,8066.666666666666
163.13360117437998,81.81698215251488,2.32264544541451,8100.0
163.81732087227414,81.80228971962616,2.297102803738317,8133.333333333332
163.50615023474182,81.84669796557121,2.2335993740219093,8166.666666666666
164.2269041458951,82.02637723228372,2.173581750489052,8200.0
164.25178267179908,82.02221240613365,2.174638732883196,8233.333333333332
163.57183254344392,81.9168720379147,2.0389731437598737,8266.666666666668
163.9242496050553,81.88276461295419,2.0955608214849923,8300.0
163.2760466690809,81.8006801971312,2.019760356473681,8333.333333333334
164.21461744519647,82.0159615780881,2.051673033333861,8366.666666666668
163.2566915313734,81.92803861342693,2.116655174575315,8400.0
163.24616059675296,81.936736037109,2.1079577508932488,8433.333333333334
163.6226571804676,81.8041277502664,2.160032595750016,8466.666666666666
163.79095238095238,81.89425396825395,1.9567301587301589,8500.0
164.12122641509433,81.90474842767294,2.179764150943396,8533.333333333334
163.65813586097946,81.85287519747236,2.0876145339652448,8566.666666666666
163.8086158303286,81.76279699579601,2.1421328588748403,8600.0
163.82236148068841,81.77742438317772,2.1330635637920987,8633.333333333332
163.3285118786435,81.92796025825862,2.141023631918761,8666.666666666666
163.95690251572327,82.07985849056604,2.2087264150943398,8700.0
163.56113207547168,82.06158805031446,2.127955974842767,8733.333333333332
164.10697608380138,82.2067741528365,2.1628068404114345,8766.666666666668
163.3309095467937,82.08672350028208,2.155064878079358,8800.0
163.56509433962262,82.16814465408805,2.123474842767296,8833.333333333334
164.34744567198715,82.14825088367226,2.1395647418725927,8866.666666666668
164.01480448255637,82.16456117548225,2.0818367702769103,8900.0
164.3273787823551,82.07419676964288,2.1362836627621293,8933.333333333334
163.88242007322987,82.1319405918623,2.0239344418202854,8966.666666666666
164.1984445005364,82.0905218653373,2.176437180538904,9000.0
164.19924906922446,82.10710229065437,2.172919164510633,9033.333333333334
163.64781977661391,82.02561999116553,2.1406733135609266,9066.666666666666
163.85356918238992,81.90069182389935,2.1814779874213834,9100.0
163.4639465408805,81.97018867924528,2.119764150943396,9133.333333333332
164.01561809806273,82.0482741212848,2.117908752445258,9166.666666666666
163.71035527229128,82.02031930333817,2.1002871205906484,9200.0
163.67484381901937,82.03956584842555,2.113838581434972,9233.333333333332
163.75808176100628,81.95204402515724,2.208081761006289,9266.666666666668
163.4099213836478,82.05650943396226,2.181588050314465,9300.0
163.8706319115324,82.0552290679305,2.2107109004739343,9333.333333333334
163.43014150943398,82.07668238993709,2.2071698113207545,9366.666666666668
163.87357030015798,82.06241706161137,2.1986413902053714,9400.0
163.90575039494468,82.07183254344392,2.192132701421801,9433.333333333334
163.45177672955975,82.18701257861635,2.18125786163522,9466.666666666666
164.01529354499348,82.37511580071286,2.263837203824956,9500.0
163.38067292644757,82.40255086071987,2.2094835680751173,9533.333333333334
163.90030932529405,82.331574732677,2.200590387363198,9566.666666666666
163.63915883132455,82.34893039692055,2.1307818514545342,9600.0
163.7804297822731,82.43108989507516,2.169423701042947,9633.333333333332
164.31752564264912,82.1538717234393,2.1687982778270234,9666.666666666666
163.9341205521084,82.1487590224136,2.1183835633784978,9700.0
163.82583690182227,81.98815365861282,2.3394961397805765,9733.333333333332
163.86661073825502,81.97214131948841,2.1750664809421303,9766.666666666668
164.16254590350766,81.95233949601115,2.206201722172977,9800.0
164.1964670127897,81.93760288717235,2.2029726478409524,9833.333333333334
163.78107192604787,81.98664049639105,2.209763201215652,9866.666666666668
164.19227238191718,81.95882930226671,2.229137647207801,9900.0
163.43218829118868,81.9603350732973,2.290391648173038,9933.333333333334
164.01058559979808,81.93326812645927,2.264639994951726,9966.666666666666
163.80009813853363,82.11247942256554,2.205521083955933,10000.0
163.777336330252,82.10489742940358,2.1990312777003926,10033.333333333334
164.24108838799546,82.05120615423579,2.2203843231606943,10066.666666666666
163.39438679245282,82.02006289308177,2.2024056603773583,10100.0
163.8379716981132,81.99992138364779,2.2212578616352205,10133.333333333332
163.7024200164069,82.17946614501167,2.1553606360825395,10166.666666666666
164.31468002646758,82.15990799382425,2.2300311938746566,10200.0
164.02530240990214,82.0938955396493,2.3136311068046136,10233.333333333332
163.72300469483568,82.13206776893244,2.1982979257933333,10266.666666666668
164.33196150436873,82.2166328985691,2.174464986703812,10300.0
163.73741086641002,82.1577901180034,2.1291096106518586,10333.333333333334
164.05206032687573,82.02107654445636,2.151416671925286,10366.666666666668
163.31319182389942,81.95734276729559,2.1268867924528303,10400.0
163.29487421383647,81.94416666666666,2.1235220125786163,10433.333333333334
163.70768867924528,81.86132075471697,2.166037735849057,10466.666666666666
163.04226477778474,81.7803861342694,2.1659249044066944,10500.0
163.72394654088052,81.6502358490566,2.190235849056604,10533.333333333334
163.0664138406569,81.65990722748072,2.188851626653294,10566.666666666666
163.3918541967028,81.6097599197643,2.242838337616749,10600.0
163.40169560584215,81.6238011659249,2.2433868237948973,10633.333333333332
163.00504607283898,81.62253181219832,2.1743715915501785,10666.666666666666
163.42319626402556,81.64959568733153,2.2044286341127064,10700.0
163.1776781796527,81.73854447439352,2.177161035541904,10733.333333333332
163.20523553667377,81.74514244658253,2.2243689866300143,10766.666666666668
162.4134219248521,81.71780813431221,2.177972926927485,10800.0
162.3992039153734,81.73723012111637,2.185515596443949,10833.333333333334
163.05596968759667,81.78507578100836,2.2668728734921126,10866.666666666668
162.46241830065358,81.86605931680847,2.2344308792699468,10900.0
163.331675604889,81.80381641307059,2.1971657520578702,10933.333333333334
162.56817197649244,81.75954222084751,2.266563563253944,10966.666666666666
163.3291456504141,81.6588984370135,2.290771529983187,11000.0
163.12122951837142,81.60046859483614,2.3257199602780534,11033.333333333336
162.8446354069369,81.66602839529236,2.2018649978205365,11066.666666666664
163.15464848371633,81.49970421570457,2.230493804097391,11100.0
162.79050688087676,81.44419017373436,2.2249206052680743,11133.333333333332
162.97641736004584,81.46051224840794,2.3154371775205687,11166.666666666664
162.59260292226404,81.59531446102356,2.2536140938037463,11200.0
162.60592819845363,81.58518105331659,2.250453214335518,11233.333333333332
163.16726540047483,81.6040234911908,2.2249468949144067,11266.666666666668
162.68577247147346,81.68123309392779,2.230699872524329,11300.0
163.1056493486304,81.52210614681465,2.2992724559276185,11333.333333333336
162.7824097213545,81.4940803448707,2.2131388229413966,11366.666666666668
163.20610639554766,81.48959985076019,2.331654385473992,11400.0
163.23262755339985,81.50087056555671,2.335649659546684,11433.333333333336
162.87728134813298,81.50001554581351,2.304822311351553,11466.666666666664
163.15413674097562,81.52422037745235,2.2938780586388083,11500.0
162.7489817492149,81.60291328545222,2.274912166153655,11533.333333333336
163.12621645990734,81.62332493859405,2.3637720361906536,11566.666666666664
162.7794826353263,81.73441532195379,2.260299101451979,11600.0
162.7810061250505,81.73604763237259,2.2564748313279237,11633.333333333332
163.09243540714485,81.74909056990954,2.272005099026832,11666.666666666664
163.10133670238488,81.92118603091416,2.215478920031819,11700.0
163.38444621215666,81.89638606834806,2.23953020448271,11733.333333333332
163.21605633802818,81.99539906103287,2.162425665101721,11766.666666666668
163.37968898663297,81.68923619234788,2.2849656075990827,11800.0
163.62712050078247,81.77654147104852,2.2532550860719875,11833.333333333336
162.75924653255032,81.52595901536924,2.1606741222041737,11866.666666666668
163.30578821767816,81.59392010980613,2.23856316191724,11900.0
162.8373964718544,81.5990360769267,2.2144650850841483,11933.333333333336
163.25316238516368,81.43477921794332,2.2619593530173288,11966.666666666664
162.60247800267388,81.38707521064578,2.2404937350371545,12000.0
162.57783788825668,81.4037558685446,2.243431893791002,12033.333333333336
163.2409807683309,81.38181024129271,2.296024207259058,12066.666666666664
162.9254129427729,81.45862773540469,2.2919064776254423,12100.0
163.3501473960039,81.40430177967026,2.2700700325986927,12133.333333333332
162.96956935410915,81.4231903046184,2.2707719183316954,12166.666666666664
163.31291625723333,81.40347511425139,2.2994556486204045,12200.0
163.33188276948513,81.40840391184315,2.298348228908333,12233.333333333332
162.9743577745543,81.44420008422628,2.255502004273704,12266.666666666668
163.02209060100114,81.45359574666541,2.3172434163479774,12300.0
162.67604079221462,81.59052327208282,2.294282249790132,12333.333333333336
163.1748282187607,81.63007182165842,2.3520349469887756,12366.666666666668
162.7648851164381,81.72196312533035,2.28226533594503,12400.0
162.7515779000715,81.71509187575785,2.278503249075024,12433.333333333336
163.45100057710604,81.67916023271411,2.269836070687692,12466.666666666664
162.92087180922178,81.72008208189534,2.2519976370363457,12500.0
163.29408015421447,81.64591300562758,2.354071448558903,12533.333333333336
163.20778937189027,81.83733408201145,2.2540514404254988,12566.666666666664
163.30230388956252,81.6988931380779,2.315611105929173,12600.0
163.32296427572055,81.71599353294158,2.3148493610670644,12633.333333333332
162.90924354071447,81.67509249759041,2.304231570438081,12666.666666666664
163.25076951776884,81.45516587383018,2.3351366477007742,12700.0
162.8565898703479,81.40342940646083,2.2654447657245904,12733.333333333332
163.16052607032924,81.23878369555078,2.3772813481329482,12766.666666666668
162.74736498460962,81.28357118428006,2.3331623293846966,12800.0
162.75181108727418,81.27808351211019,2.336877778814165,12833.333333333336
163.13030500886111,81.23943661971829,2.3761620495600533,12866.666666666668
162.93430349539094,81.30588180244256,2.268276324614353,12900.0
163.13782918260108,81.05686658582844,2.3460498087864936,12933.333333333336
162.72401517271402,81.13683425053631,2.307278549886516,12966.666666666664
163.081973074651,81.16469234835058,2.3205391288126105,13000.0
163.09050772626932,81.17649162080652,2.332151851506389,13033.333333333336
162.70475390977208,81.25137580449584,2.2758604607779125,13066.666666666664
163.00839473929668,81.20341696981002,2.3127040388023503,13100.0
162.65189814382987,81.26718589683797,2.3305817243416347,13133.333333333332
162.95463731617076,81.31823834841276,2.352439138140099,13166.666666666664
162.61542766532972,81.38222491682991,2.253148027236265,13200.0
162.5996020271741,81.3916145881914,2.2558996362279635,13233.333333333332
163.2311699655296,81.47168281003852,2.2837957980440784,13266.666666666668
162.96208257295714,81.51983217132249,2.279537691263862,13300.0
163.19597052513757,81.45166806578987,2.380468239902994,13333.333333333336
162.84196125983271,81.5126542921991,2.3603053197773844,13366.666666666668
163.40252092965142,81.39988129451456,2.3281425715356736,13400.0
163.42838623016368,81.4036298887917,2.3445426714981883,13433.333333333336
162.8883966047943,81.57078008892205,2.3358983925628842,13466.666666666664
163.31453844479682,81.50138357740259,2.3486770512700934,13500.0
163.24656465927347,81.74457598302996,2.26127306474506,13533.333333333336
163.2533034853714,81.71069241053385,2.310512079097099,13566.666666666664
162.8208966825234,81.72532102104903,2.2641233715760345,13600.0
162.8299132543606,81.72137238441688,2.267185896837981,13633.333333333332
163.04774119329662,81.63484438640674,2.3299598918011384,13666.666666666664
162.63604141404718,81.68821316419488,2.303936199981345,13700.0
163.0449584926779,81.47933961384199,2.351304293753692,13733.333333333332
162.72978266952708,81.41532195379784,2.3233062836178218,13766.666666666668
163.17722227404158,81.27979355159654,2.3462052669216185,13800.0
163.2140192146255,81.28848366135,2.3483661349998446,13833.333333333336
162.5868544600939,81.29919472686005,2.286338339085284,13866.666666666668
163.2173662127806,81.30474318780902,2.340055838909425,13900.0
162.75634137198549,81.3263932275397,2.2311789329001623,13933.333333333336
163.06529241675216,81.2386437832292,2.314507353169791,13966.666666666664
162.74431800516118,81.35500419736964,2.2480023629636543,14000.0
162.7124335416472,81.36688119889314,2.2446289214314583,14033.333333333336
163.1655785330501,81.34771335749095,2.2048762963888544,14066.666666666664
162.82364425840308,81.41468824190929,2.1574565787829565,14100.0
163.47157274493827,81.51833510938381,2.2367736475897946,14133.333333333332
162.6202440998817,81.46070739149387,2.253440438383461,14166.666666666664
163.1724040984631,81.51015244283394,2.2371923028864176,14200.0
163.2216668749219,81.50960577283519,2.243252530301137,14233.333333333332
163.17860277063875,81.64323324766501,2.1722873440732147,14266.666666666668
163.58769510436906,81.66042437159155,2.1703754779665263,14300.0
163.04756158716228,81.76850749075408,2.0978185921143355,14333.333333333336
163.29301511933025,81.56948956641259,2.1923497438460577,14366.666666666668
162.97875796576284,81.68036986130201,2.146976133949769,14400.0
162.9696988629264,81.67921404473324,2.134105960264901,14433.333333333336
163.29000062476572,81.65875296763714,2.217480944645758,14466.666666666664
163.2654986522911,81.74605089951733,2.171801542029712,14500.0
163.19300127475668,81.61974940148617,2.2748188912725804,14533.333333333336
163.1072325425421,81.69006285776675,2.2302341178856078,14566.666666666664
163.46486554253116,81.48069328652917,2.2842098664827932,14600.0
163.38837677226147,81.50899193611279,2.334674714956405,14633.333333333332
163.09493512192063,81.44855199648968,2.229862721745126,14666.666666666664
163.34849244656175,81.37601078167116,2.2586347395474204,14700.0
162.97135335046698,81.39827932050397,2.19573121043064,14733.333333333332
163.3623613113521,81.40843415031654,2.2356453331661754,14766.666666666668
163.0242430890741,81.33247665015983,2.214912555632169,14800.0
162.90173599737963,81.33158641773119,2.269726888462558,14833.333333333336
163.4499153764182,81.23636620071458,2.223061493136087,14866.666666666668
163.0710054535197,81.3512035353852,2.193835015357613,14900.0
163.49172569422674,81.2280448818404,2.2603742242838334,14933.333333333336
162.85650693489941,81.32200424840686,2.208609271523179,14966.666666666664
163.42833636306645,81.36526045257945,2.258101924402933,15000.0
163.46694979000813,81.38698050523412,2.252068576443302,15033.333333333336
163.00134138162306,81.48154040522202,2.254706533776301,15066.666666666664
163.43288096282828,81.51819407008084,2.1664733905848426,15100.0
163.07167930796712,81.64149376292859,2.2015608349526734,15133.333333333332
163.40055162038487,81.69101422929856,2.246332978123237,15166.666666666664
163.05843728452328,81.79378486804988,2.173290290227543,15200.0
163.06030213752896,81.78894251864853,2.1726947909484107,15233.333333333332
163.6566163104118,81.80787312731147,2.196859524854259,15266.666666666668
163.26585908606532,81.91285338180906,2.1584498213502155,15300.0
163.48548656278757,81.82597913059753,2.2692433671798242,15333.333333333336
163.057039913902,81.7861744108059,2.3012493566047447,15366.666666666668
163.36781931901487,81.60667883268603,2.340243008438226,15400.0
163.40264844883254,81.5774647887324,2.3378409994852842,15433.333333333336
162.8123313524558,81.61882925459734,2.272612418698236,15466.666666666664
163.0943958323585,81.47595651427947,2.3015613058194124,15500.0
162.7847550418792,81.46761187278709,2.238298005084772,15533.333333333336
163.13870821830204,81.37460421443389,2.3036825604791544,15566.666666666664
162.8591705270382,81.46896885187091,2.230468079796609,15600.0
162.79183628905213,81.47383525961973,2.2176781619952277,15633.333333333332
163.2612831442362,81.35527800413715,2.2207421801542027,15666.666666666664
162.94502601391585,81.3364257506425,2.177239390710211,15700.0
163.25752967416904,81.2921248420757,2.314023676945393,15733.333333333332
162.7028839704896,81.38226256765398,2.2732051222061047,15766.666666666668
163.16917005911438,81.31513109665747,2.300110741971207,15800.0
163.1593748537738,81.33904200396175,2.308283811395505,15833.333333333336
162.56826166713302,81.43584242763423,2.29112644964711,15866.666666666668
163.5670579029734,81.46726134585289,2.2940219092331766,15900.0
163.1049332413966,81.47654046260891,2.2034570300257004,15933.333333333336
163.43992637998537,81.44984636501178,2.294714020557453,15966.666666666664
163.19375666018928,81.50269541778975,2.1767692597003694,16000.0
163.18085939948597,81.49758666081614,2.182645897323387,16033.333333333336
163.20703173809818,81.4722447832063,2.2692115456703736,16066.666666666664
162.83681119580157,81.59387104835687,2.207062976383856,16100.000000000002
163.19372422841434,81.62614019742597,2.260714731975509,16133.333333333332
163.099777471322,81.76468375854071,2.190951545163919,16166.666666666668
163.39840593951303,81.77602046386849,2.3860995429944003,16200.0
163.4454166861635,81.75671080748054,2.3948965108480342,16233.333333333336
162.89367211018046,81.87027591908037,2.293357041473648,16266.666666666664
163.25353672422128,81.73911687177328,2.3194827882020808,16300.0
162.73752593077847,81.81258091182754,2.2727995882270364,16333.333333333332
163.13220407717625,81.526882223574,2.3202002713958167,16366.666666666668
162.86709396351782,81.36656114837335,2.2007459412022814,16400.0
162.75368490009825,81.3630308985697,2.2620685352424625,16433.333333333332
163.56462072322452,81.36319814090788,2.2951622780159213,16466.666666666664
162.721055012244,81.13746042144338,2.2873676165520247,16500.0
163.47036163522012,81.1698742138365,2.331477987421384,16533.333333333336
163.23003124656523,81.37456623800776,2.304206509962787,16566.666666666668
163.82921057613433,81.31315075408595,2.257714393891588,16600.0
163.8055152394775,81.32922635199091,2.2546854294188177,16633.333333333332
163.3044420368364,81.37745536765745,2.154662647008024,16666.666666666668
163.95996043148526,81.41625449463784,2.2791935559847376,16700.0
163.37286384976525,81.39068857589984,2.262363067292645,16733.333333333336
163.85701095461658,81.37460093896712,2.347057902973396,16766.666666666664
163.68286163522012,81.44867924528302,2.263364779874214,16800.0
163.66864779874211,81.44704402515723,2.2583333333333333,16833.333333333332
164.21017295597485,81.6169968553459,2.2858962264150944,16866.666666666668
163.55364341085271,81.76077519379845,2.417643410852713,16900.0
164.00446511627908,81.83902325581396,2.455519379844961,16933.333333333332
163.96624406937858,82.05155168390759,2.350983899821109,16966.666666666664
164.46413626818074,82.11850353892821,2.41361126234736,17000.0
164.4881698685541,82.1356303958933,2.4054289492105467,17033.333333333336
164.23434704830052,82.15915065722952,2.375328614762386,17066.666666666668
164.80749180583734,82.17298267519901,2.463258935539254,17100.0
164.4418760730451,82.28053691275167,2.4191821445294206,17133.333333333332
164.82584673013892,82.26844076791009,2.4995005462775093,17166.666666666668
164.0690363226258,82.23843820486894,2.512467916310181,17200.0
164.05494283269815,82.24917165746284,2.5096678851987244,17233.333333333336
164.487423193591,82.01207124523606,2.627082523139146,17266.666666666664
163.8288992248062,81.97784496124031,2.558232558139536,17300.0
164.39290658785097,81.90476783075367,2.548323870265225,17333.333333333332
163.6868372093023,81.84065116279069,2.5325426356589147,17366.666666666668
164.01339534883718,81.78359689922479,2.6113488372093023,17400.0
164.03344186046513,81.76373643410851,2.6170232558139537,17433.333333333332
163.64882170542637,81.78023255813953,2.546248062015504,17466.666666666664
164.25867620751342,81.75109278991987,2.5732130357003964,17500.0
163.5983255813954,81.74503875968992,2.523705426356589,17533.333333333336
163.97972222222222,81.77168209876544,2.591049382716049,17566.666666666668
163.7648372093023,81.73093023255814,2.4719844961240307,17600.0
163.75646511627906,81.72925581395349,2.47631007751938,17633.333333333332
164.27959689922483,81.71286821705426,2.570387596899225,17666.666666666668
164.0044644940499,81.80378004200047,2.4312047911643457,17700.0
164.3336292834891,81.73950155763241,2.4466355140186917,17733.333333333336
163.46560846560845,81.92149624707764,2.5154423526516547,17766.666666666664
164.57405749996073,81.97504985318824,2.32180821831771,17800.0
164.5993373843955,81.97690266459401,2.3310408717634683,17833.333333333332
163.77365891472868,81.96967441860465,2.455472868217054,17866.666666666668
164.21353488372094,81.92697674418605,2.5350542635658915,17900.0
164.40196586430508,82.04339975191169,2.3219024290671566,17933.333333333332
164.77296779562548,81.99904219071395,2.4024212162607754,17966.666666666664
164.40604833011446,82.05870899869674,2.357514092357938,18000.0
164.3987155934492,82.05071678678537,2.3723365836041888,18033.333333333336
164.93704508932794,81.97740807259666,2.405031981598765,18066.666666666668
164.26261246408214,81.81807904281878,2.3946645312230124,18100.0
164.5873098120495,81.84689183035783,2.4105547442963244,18133.33333333333
163.72156589147286,81.76015503875969,2.4489147286821704,18166.666666666668
164.06621705426355,81.59562790697674,2.5005891472868216,18200.0
164.11423255813955,81.57142635658914,2.5113333333333334,18233.333333333336
164.19441958327445,81.60093896713614,2.3357671110273683,18266.666666666664
164.34029318913508,81.5505735629669,2.450536054761979,18300.0
164.41856508176573,81.65313356649969,2.3596118095598198,18333.33333333333
164.62121498566344,81.71988530736996,2.4004159183287648,18366.666666666668
163.80992455471727,81.76761297347748,2.435855953955044,18400.0
163.8277203080034,81.77302636695963,2.424795831064789,18433.33333333333
164.2295869954111,81.74837053745041,2.401695574395271,18466.666666666664
163.68072868217055,81.78711627906976,2.4050387596899223,18500.0
163.9637519379845,81.80965891472869,2.436806201550388,18533.333333333336
163.64607751937984,81.85472868217055,2.3852403100775192,18566.666666666668
164.04641860465117,81.82037209302325,2.4975968992248063,18600.0
164.5519807810071,81.8484620095153,2.3611726097947776,18633.33333333333
164.19759134517247,81.92065884717448,2.3095294173065146,18666.666666666668
164.11665116279067,81.84922480620155,2.4864186046511643,18700.0
163.78957943925232,81.95001557632399,2.3258411214953267,18733.333333333336
164.18604361370717,81.89813084112149,2.351978193146417,18766.666666666664
163.6804496124031,81.95365891472869,2.4572713178294574,18800.0
163.67745736434108,81.95761240310078,2.4631317829457364,18833.33333333333
163.8654640295588,81.78527959760302,2.472769894743379,18866.666666666668
163.62299224806205,81.80401550387597,2.4318294573643406,18900.0
163.80938926320366,81.5730741764213,2.524202813053063,18933.33333333333
163.61877519379846,81.65928682170542,2.4669612403100776,18966.666666666664
163.60324499729583,81.6050220196245,2.5392258363594222,19000.0
163.62738159622958,81.6114965618481,2.5369388858842616,19033.333333333336
163.39505387027666,81.58114695563077,2.440416679603813,19066.666666666668
163.88521128947124,81.54475735088646,2.4579749743844506,19100.0
163.4457881826932,81.55157263948831,2.409212283044059,19133.33333333333
164.1066823161189,81.52732394366197,2.386431924882629,19166.666666666668
163.36321296612542,81.52847207128886,2.4161983419753468,19200.0
163.42877419556098,81.51956701449005,2.3723581800882814,19233.333333333336
164.00419405320815,81.58010954616589,2.3673082942097032,19266.666666666664
163.4785456927612,81.6331009311684,2.3452497933336454,19300.0
163.8074025548641,81.69823592719105,2.3757272316066937,19333.33333333333
163.8165414710485,81.84247261345853,2.264021909233177,19366.666666666668
163.99519598209412,81.71001201004476,2.3776925116591023,19400.0
164.04108371157176,81.73548266342239,2.371313150219144,19433.33333333333
163.90228482003133,81.86194053208138,2.2887323943661966,19466.666666666664
164.15968701095463,81.8611111111111,2.3601408450704224,19500.0
163.8877777777778,81.95566510172144,2.3054929577464787,19533.333333333336
163.66632156377963,81.83255813953487,2.5127868345824,19566.666666666668
163.43158607112096,81.89948628030024,2.5873477297895904,19600.0
163.4545188876584,81.89494893564661,2.584948320413437,19633.33333333333
163.67957118247816,81.90528485295926,2.6057278208441,19666.666666666668
163.6217054263566,81.99691472868217,2.4887751937984497,19700.0
164.05333333333334,81.86531782945738,2.473147286821705,19733.333333333336
163.35226713424387,81.848960255937,2.525147655961609,19766.666666666664
163.9740310077519,81.79368992248062,2.476372093023256,19800.0
163.9308950617284,81.8020524691358,2.5232407407407407,19833.33333333333
163.52783950617285,81.86668209876544,2.490956790123457,19866.666666666668
163.62958348714162,81.77288667404947,2.549080226405808,19900.0
163.48591049382716,81.91537037037038,2.4275462962962964,19933.33333333333
163.90135802469138,81.78169753086421,2.5834722222222224,19966.666666666664
163.5298148148148,81.85038580246913,2.5486728395061733,20000.0
163.27167158853206,81.79131290759199,2.5726436569459827,20033.333333333336
164.4921255515254,81.83629312104509,2.332940788543973,20066.666666666668
163.49600308641976,81.87848765432098,2.478811728395062,20100.0
163.62032422788238,81.79366617448014,2.5923003568352407,20133.33333333333
163.2406176941061,82.00003076165869,2.5230712440014766,20166.666666666668
163.57122862064722,81.90490033222592,2.6482865756121567,20200.0
163.6108496370124,81.89905561707887,2.6561615602313275,20233.333333333336
164.10061708040885,82.05930566677658,2.3650195487305097,20266.666666666664
163.72895001158923,82.04739241288728,2.56130727033918,20300.0
164.0619278659695,82.25336410884482,2.352034167098466,20333.33333333333
164.15866979655712,82.19524256651017,2.3952582159624414,20366.666666666668
163.88917057902972,82.25439749608763,2.300266040688576,20400.0
163.87574334898278,82.269186228482,2.307511737089202,20433.33333333333
164.25533646322378,82.26503912363067,2.364647887323944,20466.666666666664
163.99577464788732,82.30807511737089,2.36133020344288,20500.0
164.49394366197183,82.34744913928013,2.4258998435054773,20533.333333333336
164.10899843505481,82.45758998435055,2.3477308294209704,20566.666666666668
164.736461130215,82.43228602383532,2.344073358770236,20600.0
164.766749886162,82.43851963509036,2.3565248794887497,20633.33333333333
164.32078760186536,82.57614583824014,2.3109111749650637,20666.666666666668
164.61397145414293,82.48912650933471,2.3340556157457564,20700.0
164.15419159326078,82.50509523136591,2.2989621115769308,20733.333333333336
164.49041405624382,82.39815032895253,2.37624632970622,20766.666666666664
164.16183836575752,82.39706690533392,2.3309937663887452,20800.0
164.18532824595286,82.3941777756842,2.328167443905349,20833.33333333333
164.35199887475392,82.26260431969494,2.355374613196637,20866.666666666668
163.94122151720688,82.24911699434251,2.335589035101429,20900.0
164.24464726658957,82.22107961116494,2.38922576813678,20933.33333333333
163.62200934579442,82.13820872274142,2.401510903426791,20966.666666666664
164.41240271309348,82.12596505485574,2.4012283937111243,21000.0
164.42337386303254,82.13151314350014,2.4043540774544434,21033.333333333336
163.57429012345682,82.1054938271605,2.4971604938271605,21066.666666666668
164.77995714780857,82.05055613321991,2.344755332892208,21100.0
164.1361235270215,82.14331259963117,2.379161066483293,21133.33333333333
164.5250836120401,82.00940830806739,2.4609289532085143,21166.666666666668
164.1319663676429,82.12793423561403,2.4207326602694343,21200.0
164.20558355708388,82.10402436918052,2.3601519933424404,21233.333333333336
164.42937517581967,82.11436876816803,2.458912887194073,21266.666666666664
164.1618947894852,82.22229862782483,2.3923201950426654,21300.0
164.65625637885282,82.1211707255798,2.402876568216433,21333.33333333333
164.2297064982965,82.24236551745695,2.43236020379458,21366.666666666668
164.23279069767446,82.2137054263566,2.5197829457364342,21400.0
164.24172093023256,82.22153488372093,2.514294573643411,21433.33333333333
164.29926859000406,82.38378707842341,2.385850029693996,21466.666666666664
164.67467883599537,82.48049573344169,2.422514300003125,21500.0
164.30517613227894,82.54396274184978,2.4008220548244927,21533.333333333336
164.77034559643258,82.46339127294424,2.3609527847127354,21566.666666666668
164.19552425665103,82.45932707355243,2.365978090766823,21600.0
164.20915492957747,82.439186228482,2.3612363067292645,21633.33333333333
164.56392801251957,82.40985915492958,2.4364788732394365,21666.666666666668
164.47072400960948,82.60389090395212,2.335060530406519,21700.0
164.8382087396172,82.56016141441737,2.359194184056401,21733.333333333336
164.42930268343616,82.68494355205928,2.323409801058301,21766.666666666664
164.59573969305785,82.69896539868095,2.4501453442940644,21800.0
164.3593613707165,82.64317757009346,2.4692834890965734,21833.33333333333
164.15584659144187,82.73553589847779,2.3951801956678023,21866.666666666668
164.4743354216716,82.55609465039959,2.3581264622293396,21900.0
164.0608601441424,82.49722863378713,2.311743369918508,21933.33333333333
164.50807857176503,82.38304520545793,2.3651451630631053,21966.666666666664
163.85931142410016,82.19937402190924,2.3236463223787167,22000.0
163.85251956181534,82.20231611893584,2.3150391236306733,22033.333333333336
163.76357876844625,82.05056014834274,2.4758865796183263,22066.66666666667
163.44111245841498,81.98801417778192,2.3579734477505205,22100.0
163.53268683137077,81.90696528900177,2.4366812899253443,22133.33333333333
163.29425075040405,81.92459016393444,2.3801123681982603,22166.66666666667
163.6747417609444,81.91518076733891,2.4048204623708798,22200.0
163.70997294638462,81.91959235120511,2.4040057796360057,22233.333333333336
163.05258567931455,81.9045899632803,2.446741126070992,22266.666666666664
163.52103409933284,81.8132258463059,2.4251760563380285,22300.0
163.63907284768214,82.06198115847404,2.3351055560737493,22333.33333333333
164.10894826322274,82.12566874112895,2.3750877357166247,22366.66666666667
163.53640829524608,82.1003793178497,2.296598576003482,22400.0
163.54503622174548,82.09168920809627,2.310698628859248,22433.33333333333
163.68919568013138,81.9634019740002,2.459737523048079,22466.666666666664
163.46800671579143,82.10311538102789,2.3825202872866336,22500.0
164.14602342738596,82.07527334549934,2.3992949947748508,22533.333333333336
163.7547143325067,82.26230249715346,2.2934974186202486,22566.66666666667
164.1207399435372,82.22449425233572,2.335345405767941,22600.0
164.15294869995162,82.24976213872381,2.3367179823124795,22633.33333333333
163.7451062966949,82.37560245192083,2.2823920265780733,22666.66666666667
164.18748147801537,82.28680610796562,2.3265796328357737,22700.0
163.9214511877466,82.34830689563739,2.276387004195717,22733.333333333336
164.501220657277,82.32410015649451,2.4299061032863847,22766.666666666664
163.88741752842637,82.3266420226787,2.3573690203234907,22800.0
164.13406885759,82.38743348982786,2.3383881064162755,22833.33333333333
164.40023474178403,82.36691705790297,2.351439749608764,22866.66666666667
163.9282159624413,82.30101721439749,2.299327073552426,22900.0
164.11206775536942,82.11181819599769,2.437836320247064,22933.33333333333
163.7375117370892,82.09514866979656,2.3615805946791864,22966.666666666664
164.19757433489832,81.91334898278559,2.405054773082942,23000.0
164.2549608763693,81.909186228482,2.4209702660406887,23033.333333333336
163.5588847145031,81.92972024715125,2.4074269568727296,23066.66666666667
164.00797030243476,81.75134528098826,2.4119289379688977,23100.0
163.55618985229202,81.80043048991624,2.3340196216056026,23133.33333333333
163.8824887308346,81.74259510551681,2.336577605165879,23166.66666666667
163.57164693587885,81.6935878838925,2.329122018935317,23200.0
163.57506277977944,81.68953254410181,2.3346279225742053,23233.333333333336
163.96072559387332,81.67986211844712,2.4204763464507977,23266.666666666664
163.62049818289586,81.79478420913075,2.3190304618408124,23300.0
164.23469483568076,81.83311424100155,2.3425978090766817,23333.33333333333
163.85970266040692,81.8758372456964,2.3493896713615023,23366.66666666667
164.51371551494023,82.0065005417118,2.3311350825129145,23400.0
164.32150234741786,81.9397965571205,2.3499687010954617,23433.33333333333
164.01361345329505,82.13795594077286,2.3015372053951357,23466.666666666664
164.20513302034428,81.91001564945229,2.4188106416275432,23500.0
163.81186228482002,82.07446009389672,2.329139280125196,23533.333333333336
164.26680751173708,81.96050078247261,2.485023474178404,23566.66666666667
163.93181533646322,82.11688575899844,2.3884976525821595,23600.0
164.16891987375755,82.1907139604629,2.36246015670388,23633.33333333333
164.3333489827856,82.09635367762128,2.404194053208138,23666.66666666667
164.2659569456875,82.33213999717367,2.290907092499254,23700.0
164.46574250617326,82.29012596505486,2.424811677554465,23733.333333333336
163.97389671361503,82.18580594679186,2.331924882629108,23766.666666666664
164.41510826385291,82.0991882173756,2.3738282538037594,23800.0
164.33732378957896,82.13154440033756,2.43667364736036,23833.33333333333
163.61090342679128,82.02881619937696,2.3675856697819317,23866.66666666667
164.00929906542058,81.85517133956385,2.4657165109034267,23900.0
163.2336448598131,81.58394137920328,2.445384543732729,23933.33333333333
163.97805086723184,81.52012133468148,2.5607995644396047,23966.666666666664
163.22081433979756,81.30852198099359,2.6299003322259136,24000.0
163.20591825697286,81.31199876381055,2.6255427644286486,24033.333333333336
163.52207370779573,81.23569497025419,2.6318009734991885,24066.66666666667
163.5133489096573,81.30741433021807,2.473847352024922,24100.0
164.1397805770012,81.42782796236676,2.471196824305317,24133.33333333333
163.76638639702438,81.55949739005408,2.430437908292439,24166.66666666667
164.30381672207238,81.67168976980494,2.457693031424449,24200.0
164.31662798720438,81.67669196512576,2.457834159192122,24233.333333333336
163.4851090342679,81.66825545171339,2.443380062305296,24266.666666666664
164.10857062482418,81.68650954896383,2.4115900353202258,24300.0
163.75725940049387,81.73444190916763,2.360813302910012,24333.33333333333
164.0441588785047,81.6140965732087,2.4477414330218066,24366.66666666667
163.60830218068534,81.68705607476635,2.4166510903426794,24400.0
163.60707165109034,81.68532710280374,2.415233644859813,24433.33333333333
164.25649360797675,81.71918857250024,2.4241865408058008,24466.666666666664
163.6591433021807,81.80688473520249,2.4018691588785046,24500.0
164.08892523364486,81.79303738317756,2.4716978193146417,24533.333333333336
164.22625917330487,82.05187229505111,2.404472182148905,24566.66666666667
164.629727780217,82.03419996236592,2.4041899266135607,24600.0
164.63396161324718,82.07150473562064,2.4007244558740517,24633.33333333333
164.2320610926425,82.14667879320076,2.3382675782475064,24666.66666666667
164.06264797507788,81.89147975077881,2.4428037383177568,24700.0
164.22886219657528,81.99167346170732,2.336025214827824,24733.333333333336
164.58313993602206,81.80202910368186,2.445697171172301,24766.666666666664
163.95892851561285,81.68479042290501,2.41795080173788,24800.0
163.8979307973619,81.69490200981464,2.4224049010721096,24833.33333333333
164.2175779730886,81.57969977444193,2.509232324803609,24866.66666666667
163.9850319962541,81.63155923208991,2.428515685968472,24900.0
163.78778294573644,81.33387596899225,2.509457364341085,24933.33333333333
163.4872868217054,81.29720930232558,2.4355038759689918,24966.666666666664
163.8779534883721,81.28493023255814,2.4726976744186047,25000.0
163.87989147286822,81.28572093023256,2.469813953488372,25033.333333333336
163.62085271317832,81.32593798449612,2.4208372093023263,25066.66666666667
163.81415503875968,81.33621705426356,2.4604496124031012,25100.0
163.98175433120025,81.56327454346807,2.3484938348681133,25133.33333333333
164.2299984392071,81.56687997502729,2.3921648197284218,25166.66666666667
163.17590975817043,81.47996600479023,2.4249864791779343,25200.0
163.17822761338175,81.46945839449894,2.435215946843854,25233.333333333336
164.22420529490824,81.59666176976215,2.4016816178539053,25266.666666666664
163.94293968941855,81.62519823511863,2.295774647887324,25300.0
164.75289094747458,81.67800989381479,2.3255663736332988,25333.33333333333
164.3233922550966,81.75378895295712,2.2656835869804963,25366.66666666667
164.48820054386897,81.66992779670551,2.418294626949645,25400.0
164.5134716969337,81.68872878442156,2.4249523333229144,25433.33333333333
164.30155290718668,81.71149528161162,2.354656366291393,25466.666666666664
164.63722580746463,81.69931069134988,2.3712688617771285,25500.0
164.13059106679592,81.92773419185447,2.3868815053292907,25533.333333333336
164.77849212820672,81.9917518660227,2.4154487863011984,25566.66666666667
164.17503828962586,82.08594067452255,2.4026193229769013,25600.0
164.1475166442659,82.10477291907604,2.4082299252961583,25633.33333333333
164.50528240552617,82.10477291907604,2.472025130497296,25666.66666666667
164.32892112990092,82.09161995383674,2.377957824987832,25700.0
164.82225741704818,82.08017625290096,2.4581791381797653,25733.333333333336
164.46073511886092,81.99393150599008,2.3971962616822418,25766.666666666664
164.82302577933888,81.9259236028351,2.436461142821301,25800.0
164.63334166848998,81.84363767074048,2.4660394461288404,25833.33333333333
164.08058012690276,81.71764135904729,2.415528396836808,25866.66666666667
164.51082638529056,81.55722517939296,2.4140405420258455,25900.0
164.33098591549296,81.67890789929736,2.359060402684564,25933.33333333333
164.4813384207138,81.5237489597563,2.421404682274247,25966.666666666664
164.4719940841436,81.76523805028478,2.4090594417697218,26000.0
164.53382020518168,81.73176206509541,2.336810989393149,26033.333333333336
164.2714343762698,81.56878067077173,2.4138561560341323,26066.66666666667
163.66786604361369,81.53395638629283,2.3991277258566983,26100.0
164.07235202492208,81.47956386292834,2.468395638629284,26133.33333333333
164.1214690596197,81.60710977122491,2.3714101779012986,26166.66666666667
164.44858448348958,81.59365333584562,2.370939124154066,26200.0
164.49374283605758,81.5861792830562,2.371394476109724,26233.333333333336
164.02661519707436,81.74647579157941,2.3891319976244803,26266.666666666664
164.3771762573063,81.75522770606071,2.442956271684431,26300.0
164.05263240535749,81.69866691789532,2.3980247146199383,26333.33333333333
164.52231738192728,81.63596724283438,2.5179883099428,26366.66666666667
164.19891851342481,81.71707873597349,2.4815584659144188,26400.0
164.21132747788582,81.69954365017347,2.484293439189824,26433.33333333333
164.27954828660435,81.68412772585671,2.5089563862928346,26466.666666666664
163.91582554517134,81.85992211838006,2.4349844236760125,26500.0
164.24794392523364,81.8817601246106,2.475669781931464,26533.333333333336
163.8728504672897,82.03236760124611,2.420778816199377,26566.66666666667
164.54461913543588,82.11421248398085,2.438924139655549,26600.0
164.33791277258567,82.06761682242991,2.4704517133956387,26633.33333333333
164.2771700059388,82.2882036695527,2.35407745444316,26666.66666666667
164.47493769470404,82.01951713395637,2.464968847352025,26700.0
164.33185384302817,82.1611446253868,2.3461694745725628,26733.333333333336
164.7388647516644,82.07301597224392,2.413668615009533,26766.666666666664
164.73857160947196,82.07889071799418,2.238967329365582,26800.0
164.24853874285,82.0497296283562,2.36311068046135,26833.33333333333
164.47958928515612,81.9446285124871,2.3937892664020253,26866.66666666667
164.0163942112337,82.06390460413216,2.3818022692463976,26900.0
164.8386583483001,81.95117685981663,2.333475123672685,26933.33333333333
163.86775700934578,81.90672897196261,2.32797507788162,26966.666666666664
164.13795950155762,81.87579439252336,2.439859813084112,27000.0
164.1356230529595,81.8752492211838,2.439626168224299,27033.333333333336
164.03204402515723,81.87987421383647,2.2605345911949684,27066.66666666667
164.53739381663448,81.86433652079701,2.4021699875955846,27100.0
164.09613040352576,82.00237551964491,2.3883193198512176,27133.33333333333
164.23654205607474,81.88239875389408,2.4675856697819314,27166.66666666667
163.3322537861263,81.81638444218255,2.4269300761851884,27200.0
163.29462385490885,81.84025785756145,2.4167514882329355,27233.333333333336
163.67864256166698,81.76777999080744,2.514662172514172,27266.666666666664
163.6570954254796,81.8545714461387,2.4831990900147565,27300.0
163.951441834727,81.73585833743236,2.5396581406787995,27333.33333333333
163.1106021142945,81.76836218783517,2.5238853991113843,27366.66666666667
163.71526594519918,81.87269936295955,2.5947194719471947,27400.0
163.50162178702567,81.81297429620564,2.613953488372093,27433.33333333333
163.57626725258405,81.9602339543232,2.5546976542675,27466.666666666664
163.6971098979057,81.87440239351037,2.5874587458745872,27500.0
163.58711394442042,82.03521693383674,2.4877916692455284,27533.333333333336
163.94541065791918,82.03236987064429,2.576839759856409,27566.66666666667
163.63105774586867,82.09293185616144,2.501114068205732,27600.0
163.60928699634837,82.08807328093087,2.5127344185182894,27633.33333333333
164.08012052847099,82.10745576759638,2.55279301552963,27666.66666666667
163.79313503275685,82.12314093209552,2.4352469959946603,27700.0
164.40939252336452,82.04021806853581,2.4718847352024915,27733.333333333336
164.20981152127027,82.1020066889632,2.408308067389741,27766.666666666664
164.61980745788142,81.95411496264808,2.4513018472790917,27800.0
164.64967336604886,81.93250085956302,2.4734160597630734,27833.33333333333
164.2494920763917,81.93476698027693,2.3818178976651145,27866.66666666667
164.4793031033678,81.89828109201213,2.491529905887844,27900.0
164.14093707998626,81.9086518926015,2.3498108961335293,27933.33333333333
164.42699965617481,81.92192042009191,2.422295502141093,27966.666666666664
164.12602756853062,81.9680867689807,2.3808333072859686,28000.0
163.83629283489097,81.90080996884734,2.3988161993769466,28033.333333333336
164.40955834088706,81.95769387053417,2.4346419529272025,28066.66666666667
164.04543181320912,82.01567530397273,2.3496077266902136,28100.0
164.3321351545651,82.09642734348138,2.428765667489764,28133.33333333333
163.71355140186915,82.11605919003115,2.3553582554517134,28166.66666666667
164.47715125183637,82.14285937548837,2.43883036914325,28200.0
164.2723831775701,82.0857476635514,2.4605919003115257,28233.333333333336
164.1341074610071,82.16938080205044,2.363329478323384,28266.666666666664
164.51162754352515,82.13340418216484,2.4330478542181098,28300.0
164.20982714968898,82.23161316537994,2.3815365861282154,28333.33333333333
164.5073297283781,82.3022379895602,2.4496139780577,28366.66666666667
164.1887220969122,82.4015244613829,2.4521583573150814,28400.0
164.2663395117682,82.3745506829619,2.3903510142843745,28433.33333333333
164.44203157812862,82.39578439760442,2.5008322314692384,28466.666666666664
164.11884576495294,82.434051489461,2.4065956288403205,28500.0
164.58534679461133,82.3970556059138,2.403760197543213,28533.333333333336
164.30342574938268,82.49245147375989,2.35109242646829,28566.66666666667
164.63420123151943,82.59398931016159,2.362548057387553,28600.0
164.92178385498337,82.67477889983064,2.3467509251709213,28633.33333333333
164.39936861188386,82.71650048448097,2.32947832338324,28666.66666666667
164.97019660550743,82.6110399149814,2.4083393242271747,28700.0
164.17532710280372,82.45043613707166,2.4053115264797507,28733.333333333336
164.47552959501556,82.3605140186916,2.4908722741433023,28766.666666666664
164.24542868752542,82.40896446097585,2.3370424780420715,28800.0
164.20510736723656,82.4267339730566,2.332400837683243,28833.33333333333
164.56465476823058,82.23886475166442,2.3896164786046947,28866.66666666667
164.12843434501298,82.16425468071141,2.3492170162222985,28900.0
164.27982866043612,82.0632398753894,2.4561838006230534,28933.33333333333
163.84477308294208,81.88546165884195,2.284350547730829,28966.666666666664
164.2356181533646,81.80987480438185,2.374679186228482,29000.0
164.26169014084508,81.80974960876371,2.3771361502347417,29033.333333333336
163.90641509433962,81.73650943396225,2.312877358490566,29066.66666666667
164.31849056603772,81.6875,2.3177672955974837,29100.0
164.15111693064938,81.77243326812645,2.2838865400391244,29133.33333333333
164.87436684817018,81.7978821071293,2.3370425478029637,29166.66666666667
164.14807219031994,81.87743736984919,2.2734744746639746,29200.0
163.87795597484276,81.81891509433963,2.303066037735849,29233.333333333336
164.77287260985185,81.9160915537546,2.2975813600101307,29266.666666666664
163.9566823899371,81.85292452830188,2.2706289308176086,29300.0
164.29842767295597,81.82525157232703,2.3088836477987416,29333.33333333333
164.18277907490378,82.02255947497949,2.2038556193601315,29366.66666666667
164.55243613296275,82.0654921726569,2.336772025688131,29400.0
164.57130968643523,82.06123698714023,2.3338828960384377,29433.33333333333
163.8977621283255,82.03261345852896,2.3131298904538338,29466.666666666664
164.3709076682316,82.0529420970266,2.3530516431924884,29500.0
163.79386395894747,82.03732472353501,2.3379345842496844,29533.333333333336
164.28569868825355,82.03007190429399,2.3707828365542087,29566.66666666667
164.23236306729262,82.15178403755868,2.3408137715179973,29600.0
164.2024882629108,82.17342723004695,2.331408450704225,29633.33333333333
164.6202034428795,82.2025821596244,2.370281690140845,29666.66666666667
164.2310172143975,82.23054773082941,2.33095461658842,29700.0
164.71195618153362,82.22964006259781,2.3979655712050083,29733.333333333336
164.54629673245717,82.42825066340069,2.2956333317631543,29766.666666666664
164.29310398360604,82.18095445089577,2.564520135374297,29800.0
164.25891987947153,82.20854515954571,2.6287877617244844,29833.33333333333
164.26478873239438,82.28527386541471,2.3485289514866983,29866.66666666667
164.25324037246742,82.16330541387862,2.4402539266607395,29900.0
163.83454213654016,82.18749707547609,2.34549935270538,29933.33333333333
164.47788732394366,82.08302034428795,2.373693270735524,29966.666666666664
164.17215962441315,82.02300469483569,2.3171830985915487,30000.0
163.8970099667774,81.93665871196168,2.3360316940402104,30033.333333333336
164.25400464804332,81.90198555675136,2.3970021680470417,30066.66666666667
163.911016486516,81.84355746884405,2.3808899911094468,30100.0
164.85700378413176,81.89952423571529,2.3899382919591123,30133.33333333333
164.65110123830232,81.9037873775089,2.324132715757633,30166.66666666667
164.32356932291418,81.63745262271301,2.4131299424453703,30200.0
164.83985742773243,81.77070673763878,2.362805596118517,30233.333333333336
164.50115408168068,81.8679793364423,2.281643035470347,30266.666666666664
164.8329172358566,81.83514689026019,2.3417023882424983,30300.0
164.46222934036774,81.96473377612385,2.2742160880556472,30333.33333333333
164.55743348982784,81.96610328638498,2.3536150234741786,30366.66666666667
164.1594366197183,82.05998435054774,2.2647104851330204,30400.0
164.14608763693272,82.06696400625978,2.257793427230047,30433.33333333333
164.46973520249222,81.99084112149531,2.3879127725856697,30466.666666666664
164.06115264797506,82.06897196261681,2.3599844236760124,30500.0
164.4577258566978,82.13341121495327,2.42607476635514,30533.333333333336
164.0828348909657,82.26266355140187,2.376744548286604,30566.66666666667
164.5461214953271,82.22227414330217,2.388395638629284,30600.0
164.57566978193145,82.22704049844236,2.3825856697819314,30633.33333333333
164.11177570093457,82.19197819314641,2.329221183800623,30666.66666666667
164.7714968899447,82.2843434501297,2.3808176788672517,30700.0
164.18853582554516,82.37936137071651,2.3478971962616817,30733.333333333336
164.68630672926452,82.33280125195618,2.354866979655712,30766.666666666664
164.53843013487838,82.55664421310472,2.2789266255279728,30800.0
164.0884031007752,82.5397984496124,2.4221395348837205,30833.33333333333
164.73051917606975,82.54654143093802,2.3517175632169542,30866.66666666667
164.15630841121495,82.5041433021807,2.3406697819314637,30900.0
164.54619937694704,82.27887850467289,2.490280373831776,30933.33333333333
164.12088785046728,82.3196261682243,2.405514018691589,30966.666666666664
164.9046430197685,82.12468792689245,2.352175483222636,31000.0
164.85509330165976,82.13510767980496,2.411511893226644,31033.333333333336
164.58600656334886,82.0407618509272,2.3181654026724448,31066.66666666667
164.78864126527677,81.9753227268465,2.471525021098365,31100.0
163.99574766355136,81.93260124610592,2.4239563862928346,31133.33333333333
164.38777258566978,81.85445482866044,2.3899844236760117,31166.66666666667
164.07339563862928,81.95833333333333,2.3287694704049837,31200.0
164.06151090342678,81.95951713395638,2.3514330218068533,31233.333333333336
164.2449933244326,81.72378675443227,2.4371099450430034,31266.666666666664
164.14454828660436,81.85937694704049,2.387165109034268,31300.0
164.41520249221182,81.85468847352023,2.4574610591900306,31333.33333333333
164.11724299065418,81.95862928348909,2.376308411214953,31366.66666666667
164.41788161993767,81.95057632398753,2.404065420560748,31400.0
164.4321495327103,81.96925233644859,2.405545171339564,31433.33333333333
164.04478193146412,82.02568535825543,2.344470404984424,31466.666666666664
164.4193769470405,82.0172429906542,2.3650778816199374,31500.0
164.14158878504674,82.16901869158879,2.316090342679128,31533.333333333336
164.26979750778816,82.20531152647975,2.3506386292834893,31566.66666666667
164.0417445482866,82.30052959501558,2.345015576323988,31600.0
164.03920560747662,82.3240031152648,2.3398909657320868,31633.33333333333
164.77157503203824,82.25836901822274,2.4040258806613948,31666.66666666667
164.2317601246106,82.27163551401868,2.3934890965732087,31700.0
164.59408099688474,82.2635046728972,2.4523052959501555,31733.333333333336
164.27378504672896,82.37862928348909,2.4021028037383183,31766.666666666664
164.76655830963026,82.48966961522831,2.4206701465945675,31800.0
164.7789829025099,82.51323727065295,2.4053855530897383,31833.33333333333
164.32026604068858,82.57849765258216,2.3128482003129895,31866.66666666667
164.50524922118382,82.59130841121495,2.4487227414330217,31900.0
163.9446393641134,82.46620299934797,2.3927407085416217,31933.33333333333
164.16884528208158,82.3941844940541,2.43481230788338,31966.666666666664
164.01876947040498,82.25887850467291,2.504626168224299,32000.0
164.02666666666667,82.25654205607476,2.5050155763239874,32033.33333333333
164.40236760124608,82.14501557632398,2.5698753894081,32066.66666666667
163.90724299065417,82.15758566978192,2.4715732087227407,32100.0
164.31532710280374,81.97076323987537,2.5147352024922123,32133.33333333333
164.0868691588785,81.93269470404985,2.466495327102804,32166.666666666664
164.39045171339563,81.88415887850466,2.4411059190031152,32200.000000000004
164.64639139811834,81.97088425593098,2.4222017316287943,32233.333333333336
164.22967524145906,82.0115025161754,2.3636264182789986,32266.666666666664
164.54816678648453,81.95619354233739,2.4126527677929546,32300.0
164.2159534898259,81.97346294501922,2.349982808739412,32333.333333333336
164.57390679211076,81.97955802831869,2.40868314943894,32366.66666666667
164.08535825545167,81.98049844236759,2.354906542056076,32400.0
164.0479906542056,81.98985981308411,2.35867601246106,32433.33333333333
164.7273466070703,81.98018316506736,2.3933516706779607,32466.66666666667
164.44190916763046,82.05493389178882,2.339152314568812,32500.0
164.65579439252338,82.03806853582554,2.435965732087227,32533.33333333333
163.30530105714726,82.06984832235331,2.48777386241765,32566.66666666667
163.71565573269805,81.8748701973001,2.5717121739661595,32600.0
163.74729704966097,81.88873617983019,2.580492944841488,32633.33333333333
163.48380573004445,82.00677187069098,2.4621418722230737,32666.666666666664
163.973344452681,81.90920743760809,2.4573603904126515,32700.000000000004
163.4624784800787,81.9311208804722,2.483506517461879,32733.333333333336
164.02768267480954,82.00220536072298,2.5071250115665773,32766.666666666664
163.6724807994818,82.03860152370379,2.4891582616205543,32800.0
163.65277135190158,82.04279633570833,2.4883408901637827,32833.333333333336
164.0115203109096,82.0886616699053,2.5535146972641187,32866.666666666664
163.70196786033742,82.1906788809722,2.4706363159680453,32900.0
164.08619413343203,82.18181117177139,2.5322167730791767,32933.33333333333
163.5598434262031,82.36277534730219,2.5447847110292425,32966.66666666667
164.0065698158601,82.25409456833533,2.5255544246013386,33000.0
164.03960396039602,82.24564325591437,2.5301810554887263,33033.33333333333
163.40610944815413,82.12528973827615,2.5198096553841443,33066.66666666667
163.92274757431082,82.08082550438934,2.5288618512243954,33100.0
163.5567091663056,82.06227950733428,2.3969796373089065,33133.333333333336
164.22855279908094,81.89974229204832,2.4846927686527773,33166.666666666664
163.82092402272798,81.95157884931848,2.434657062129351,33200.0
163.76933585866428,81.96714999844754,2.440137237246561,33233.333333333336
163.73765241071982,81.87477563904191,2.5022900290895587,33266.666666666664
163.37734418518292,81.86971591260755,2.4707866559386025,33300.0
163.68547688308468,81.84136906603949,2.412545645850096,33333.333333333336
163.4615027542242,81.88220276041345,2.3776381754038503,33366.666666666664
163.84082641544632,81.72869446258122,2.3705033734415317,33400.0
163.98702145496318,81.78670785854005,2.4178905206942596,33433.33333333333
163.96323943661972,81.88884194053209,2.290532081377152,33466.66666666667
164.07043499860282,81.73737075790976,2.455615238923216,33500.0
163.82037964219424,81.68840952692902,2.3698157939887388,33533.33333333333
164.4492488262911,81.65856025039123,2.377902973395931,33566.66666666667
163.84742563910598,81.71433250666792,2.329262396081918,33600.0
163.8239514607022,81.71902734234867,2.3341132063700027,33633.333333333336
164.43475743348984,81.85794992175273,2.347824726134585,33666.666666666664
164.13840375586858,81.93137715179971,2.2784037558685446,33700.0
164.36026604068857,81.93524256651017,2.364835680751174,33733.333333333336
164.34429318385227,82.0247303217297,2.2831190038783418,33766.666666666664
164.729191200716,82.05635372996059,2.327099722078289,33800.0
164.73861227566064,82.07079937820905,2.3241634870538728,33833.333333333336
164.36542779531143,82.12763986370844,2.2846263758694865,33866.666666666664
164.49737089201878,82.05140845070423,2.340845070422535,33900.0
164.12791277258566,82.11739875389408,2.3491588785046726,33933.33333333333
164.61637071651091,82.01510903426791,2.375903426791277,33966.66666666667
164.45675616541118,82.07765761260275,2.3598443409495826,34000.0
164.4581939799331,82.07123433251023,2.3550620448223047,34033.33333333333
164.57923676012462,81.85303738317756,2.4205607476635507,34066.66666666667
164.10200934579441,81.91538940809968,2.4227414330218067,34100.0
164.3811370716511,81.75006230529594,2.4574922118380056,34133.333333333336
163.8066694742096,81.6499617862212,2.3582268806638282,34166.666666666664
164.1465225461295,81.60844134574891,2.353344875454276,34200.0
164.15988956997802,81.60593015457083,2.347651802286588,34233.333333333336
163.86437694704045,81.78666666666666,2.3153271028037383,34266.666666666664
164.0263607290341,81.62588878194181,2.4234638432638858,34300.0
164.0292018779343,81.75647887323944,2.280829420970266,34333.333333333336
164.2465887850467,81.72870716510903,2.3629127725856702,34366.666666666664
163.77868762965392,81.68302840297599,2.2834838488294107,34400.0
163.71561149844806,81.71651615117058,2.283951772651412,34433.33333333333
164.0281926289316,81.67094109976092,2.4319557860092527,34466.66666666667
163.84947040498443,81.71060747663552,2.3343769470404983,34500.0
164.27227414330218,81.61350467289721,2.4221183800623054,34533.33333333333
163.87911214953272,81.74168224299065,2.4186915887850464,34566.66666666667
164.30359813084112,81.62431464174455,2.489984423676012,34600.0
164.3416355140187,81.61110591900311,2.506635514018692,34633.333333333336
164.00651090342674,81.76535825545172,2.4502959501557635,34666.666666666664
164.3196573208723,81.76515576323987,2.4459034267912774,34700.0
164.01433021806852,81.81652647975079,2.399096573208724,34733.333333333336
164.1192442636694,81.72333654174558,2.4769770546775547,34766.666666666664
163.78964200329122,81.8074797404291,2.4170521936225047,34800.0
163.7606576210141,81.80024528829136,2.409771167758562,34833.333333333336
164.43239875389406,81.83820872274144,2.419813084112149,34866.666666666664
164.41240271309348,82.04230612946581,2.3905541837276902,34900.0
164.7425374300628,82.03855530897384,2.6025849404557246,34933.33333333333
164.01376947040498,81.98856697819316,2.635218068535825,34966.66666666667
164.5940049385803,81.8898040196293,2.6649110742975024,35000.0
164.649110742975,81.84957646985278,2.6696464851686303,35033.33333333333
164.2816866189479,81.86670521676616,2.587362860625762,35066.66666666667
164.94492545244267,81.2061544712906,2.5018285249898407,35100.0
164.58390898008938,80.7242521801644,2.3800362579314225,35133.333333333336
164.62382401341327,80.2488434191325,2.4629583630887697,35166.666666666664
164.24329750432418,80.13618112181864,2.4879077094143813,35200.0
164.1342843089031,80.15841736350221,2.546544515494343,35233.333333333336
164.48357591542825,79.86719779377971,2.6211582656656964,35266.666666666664
164.47241202993538,80.01970901315484,2.4245494972032406,35300.0
164.7307359039426,80.01276536485734,2.61402178622269,35333.333333333336
164.24950485857525,80.13487961874111,2.6032679334034787,35366.666666666664
164.6885459682678,80.29647281646848,2.6600273232527094,35400.0
164.70950414506163,80.30131648399417,2.678982829819605,35433.33333333333
164.32600938967138,80.60668231611893,2.5115962441314554,35466.66666666667
164.66715179968702,80.62446009389673,2.6097809076682315,35500.0
164.388540832509,80.91539874699703,2.512098230408089,35533.33333333333
164.20694710901066,80.91822251337481,2.576092212187856,35566.66666666667
163.89496087636934,81.17780907668231,2.545758998435056,35600.0
163.65595121114282,81.10573518631165,2.5788529627376664,35633.333333333336
164.4260210089971,81.33364736916481,2.5806993577967243,35666.666666666664
163.46101414689687,81.38605275061221,2.5692449269258963,35700.0
164.29666965000706,81.54902884419111,2.5853470881027523,35733.333333333336
163.7898435054773,81.60153364632238,2.6836306729264474,35766.666666666664
164.53648738065982,81.74198884582664,2.801351734568485,35800.0
164.32312716880998,81.71766608570037,2.830609072495172,35833.333333333336
164.2415634748086,81.88370041276744,2.8012887166398843,35866.666666666664
164.19926233863657,81.95336479854969,3.027068421217141,35900.0
163.8838422031068,82.10925733371145,2.9242051863755236,35933.33333333333
164.17248949382173,82.01135294486608,3.2038982625603722,35966.66666666667
163.50768918200856,82.0333510455412,3.2354890132216423,36000.0
163.49138874128715,82.03849279529896,3.2394273747382236,36033.33333333333
163.77829525208642,81.91330916137905,3.4194980151908227,36066.66666666667
163.51503446543248,81.76327979022406,3.4317050575470662,36100.0
163.59982413993436,81.6805784540016,3.7238211879975514,36133.333333333336
163.14586964372634,81.67676291864902,3.68643522225886,36166.66666666666
163.34038343775023,81.51026112079387,3.908489958704288,36200.0
163.34445020176796,81.50972725988034,3.901785293702011,36233.333333333336
162.88967921239814,81.47585849545433,3.901785293702011,36266.66666666666
163.09670733430684,81.43889647808814,4.123934240896886,36300.0
162.7632640884325,81.41132413208345,4.126179597092028,36333.333333333336
163.17268487884806,81.53012256987114,4.4761162050603405,36366.66666666666
162.5552037054542,81.68410687840691,4.4017865582758295,36400.0
162.16877129372048,81.63718625949427,4.493279779951863,36433.33333333333
162.1533644859813,81.38344236760125,4.856012461059192,36466.66666666667
161.07141539596654,81.16788612887358,4.971470732907034,36500.0
161.40366171288494,81.26453194423165,5.224161176650836,36533.33333333333
161.08250344721927,81.36621725141721,5.183989581737398,36566.66666666667
161.46124877029018,81.28364793408754,5.3939067879980325,36600.0
161.17942813572245,81.27913076629814,5.485505146778498,36633.333333333336
161.18754819407172,81.41326609296443,5.315983467505629,36666.66666666666
161.18893238161027,81.41389208688311,5.7908204773965775,36700.0
161.0604846196695,81.5245868663737,5.7171659342699765,36733.333333333336
161.2148604320109,81.52893482700998,6.161276845949125,36766.66666666666
161.18149781103492,81.66035333933618,6.096966497966281,36800.0
161.16712205421192,81.67311454031733,6.1005371503089405,36833.333333333336
161.5730897009967,81.7461731921632,6.39940075138945,36866.66666666666
161.05852764926883,81.75275561213402,6.548436675256933,36900.0
161.3759611935177,81.71202408247937,6.890459033269384,36933.33333333333
160.90931636329606,81.96308081044405,6.747414720883441,36966.66666666667
161.1045735399137,81.9445772658118,7.369298599683299,37000.0
161.1290868444748,81.95083366969915,7.385801223336543,37033.33333333333
160.453673330445,82.02409172494895,7.355542489323512,37066.66666666667
160.72069381692145,81.87265581481711,7.946710404159187,37100.0
160.26486985984909,81.86098875712305,7.8269367010626825,37133.333333333336
160.5288727497489,81.89092173375569,8.466151587730819,37166.66666666666
160.079113236253,81.9186357003136,8.447635607166145,37200.0
160.05697519172853,81.93838296022605,8.448784425745956,37233.333333333336
160.49302180685356,81.92864485981308,8.933504672897197,37266.66666666666
159.82147879162488,81.96010198562931,8.926632156377963,37300.0
160.4558294573643,81.94505426356591,9.211054263565893,37333.333333333336
159.8284478096268,81.82146333925674,9.18199799119215,37366.66666666666
160.3492523364486,81.73971962616822,9.59467289719626,37400.0
160.15906479957775,81.67525693172294,9.639193343062068,37433.33333333333
159.9177414330218,81.8940031152648,9.377352024922118,37466.66666666667
159.95993107088526,81.71010960350235,10.122830440587453,37500.0
159.73774143302182,81.86942367601245,10.012149532710279,37533.33333333333
159.41953335786116,81.81682303164091,10.647366323276918,37566.66666666667
159.5769087465458,81.8219952184308,10.791675722668986,37600.0
159.57158381718259,81.82905890023909,10.788027447449313,37633.333333333336
159.6955320271991,81.95424907628777,11.330921849287426,37666.66666666666
159.558372456964,82.09596244131454,11.458247261345852,37700.0
159.9942331134936,82.26338574063077,11.7663395117682,37733.333333333336
159.3469187216321,82.18238110835556,11.580365916428804,37766.66666666666
159.76179557967959,82.26359708639433,11.996303401806186,37800.0
159.81056883939294,82.28451328123779,12.073838379111884,37833.333333333336
159.37285729883175,82.39636267215697,11.784396300282314,37866.66666666666
159.64536053530486,82.29536911390825,12.40024643987959,37900.0
158.8536702358111,82.44924800396113,12.343751934146187,37933.33333333333
159.64285714285714,82.35883503586177,12.984087310212065,37966.66666666667
159.29870835532645,82.41931878163133,12.827553016425002,38000.0
159.30923401744963,82.40745800602355,12.835097960070796,38033.33333333333
159.97788161993768,82.28147975077881,13.416728971962614,38066.66666666667
159.5193023255814,82.28541085271318,13.370930232558141,38100.0
159.94261491794353,82.23048922765808,13.843182702030024,38133.333333333336
159.52646807186747,82.21261569572995,13.606051178346426,38166.66666666666
159.92789047604163,82.04227487262837,14.203638295877225,38200.0
159.48116869003633,81.90345266556959,14.243766882975752,38233.333333333336
159.45337170413003,82.0705607840087,14.120650229446996,38266.66666666666
159.68263239875392,81.90591900311526,14.674330218068535,38300.0
158.9414953271028,81.99325545171341,14.589439252336447,38333.333333333336
159.09581767938647,81.85226814046635,15.151581954233553,38366.66666666666
158.69019157326045,82.02376812494178,14.898081162480207,38400.0
158.6773061756761,82.03049026609122,14.901729437699881,38433.33333333333
159.44812927827962,82.12276122901883,15.4318132091395,38466.66666666667
159.07775138311501,82.1838370893633,15.35209264526615,38500.0
159.38589691495008,82.21681305285531,15.937142499921856,38533.33333333333
158.8114641744548,82.1938629283489,15.829532710280375,38566.66666666667
159.20199376947042,82.10501557632399,16.6456230529595,38600.0
159.22668224299062,82.10878504672897,16.663006230529593,38633.333333333336
158.71467289719627,82.24320872274144,16.43143302180685,38666.66666666666
158.8701557632399,82.31420560747665,16.956090342679126,38700.0
158.75740005626233,82.46405463695183,17.015378364017128,38733.333333333336
159.06223236332946,82.53124120901447,17.561732253930547,38766.66666666666
158.61213346814964,82.55785953177258,17.55887065411838,38800.0
158.598942210469,82.56709963444037,17.57820642451583,38833.333333333336
159.38899517029415,82.50517468481465,18.074201844069496,38866.66666666666
158.59709936548617,82.7313005970056,17.77560716406714,38900.0
158.7052492211838,82.57590342679127,18.58683800623053,38933.33333333333
158.2691277258567,82.81090342679127,18.298395638629287,38966.66666666667
158.57752336448596,82.81872274143302,18.71031152647975,39000.0
158.36905020647689,82.77250287204645,18.725634178905207,39033.33333333333
158.4642421779764,82.98565311161816,18.63412308942581,39066.66666666667
158.40144859813083,82.87037383177571,19.149968847352024,39100.0
157.90193146417445,82.91945482866043,19.15429906542056,39133.333333333336
158.32349263901475,82.91168380583252,19.681320913949925,39166.66666666666
158.10509314432662,83.05100984758202,19.53241234397541,39200.0
158.08381421313427,83.05317380668632,19.52240795333375,39233.333333333336
158.1782733723002,82.8544837933298,20.142812490232238,39266.66666666666
157.4357788161994,82.722492211838,19.825794392523363,39300.0
158.0266308254931,82.59794330009689,20.722626824617887,39333.333333333336
157.56974963273217,82.72711218078955,20.45481824149033,39366.66666666666
157.55107476635513,82.55003115264797,21.209968847352023,39400.0
157.56820872274142,82.5602492211838,21.254875389408106,39433.33333333333
157.34532553996186,82.76865251773825,20.9502703716438,39466.66666666667
157.28696261682242,82.63845794392523,21.521323987538942,39500.0
157.11896352327068,82.79309536461099,21.49563967117807,39533.33333333333
157.27979750778817,82.53914330218069,22.520031152647967,39566.66666666667
156.41480778357854,82.76421146102852,21.84076121071084,39600.0
156.39273083577015,82.76969242310577,21.81403003812177,39633.333333333336
156.57791999020162,82.8582145536384,21.946369245372566,39666.66666666666
156.84246553933673,83.05555902853749,21.59116056637389,39700.0
157.1603788328697,83.16023817710123,21.887365986309504,39733.333333333336
156.60986778357764,83.29758072078265,21.62737161254024,39766.66666666666
156.81341121495328,83.08045171339562,22.26453271028037,39800.0
156.86331775700933,83.08618380062305,22.3043769470405,39833.333333333336
156.43342679127724,83.19176012461058,22.235841121495326,39866.66666666666
156.9029944050261,83.23392617134998,22.991029287656673,39900.0
156.1075856697819,83.39193146417445,22.67928348909657,39933.33333333333
156.3645015576324,83.41352024922121,23.2340031152648,39966.66666666667
156.05554517133956,83.53685358255451,22.94415887850468,40000.0
156.03718068535827,83.55210280373831,22.931619937694702,40033.33333333333
156.14273294625391,83.45364361784706,23.46795727636849,40066.66666666667
156.06428348909657,83.62574766355141,23.261277258566977,40100.0
156.2522274143302,83.64076323987537,23.645015576323985,40133.333333333336
155.7925700934579,83.70543613707164,23.58443925233645,40166.66666666666
155.67547988187525,83.58710163652026,24.605773963332105,40200.0
156.08289719626168,83.6008722741433,24.536339563862928,40233.333333333336
155.45568535825544,83.62412772585671,24.11127725856698,40266.66666666666
156.00179726815242,83.41640358828494,25.025771262463664,40300.0
154.91726651901072,83.33913190599237,24.723991017595672,40333.333333333336
155.29350762256652,83.19560965007608,25.20147793957836,40366.66666666666
155.02492211838006,83.46389408099688,24.87571651090343,40400.0
155.02247663551398,83.46733644859813,24.86823987538941,40433.33333333333
155.01262147980253,83.3953643617847,25.32367187257429,40466.66666666667
154.63962803117334,83.47811034868197,25.240211755208488,40500.0
154.9224081721365,83.41893066724627,25.72291737820971,40533.33333333333
154.5715682926072,83.42608749650698,25.82471201912628,40566.66666666667
154.80067997640262,83.35125904306518,26.52757164591549,40600.0
154.81561461794018,83.3568944639364,26.594296270996992,40633.333333333336
154.7493983058794,83.60139718063327,26.441893539211698,40666.66666666666
154.83070093457943,83.54831775700934,27.354968847352023,40700.0
153.99414723507311,83.66400161455584,27.081550594591235,40733.333333333336
154.77241433021806,83.56827102803737,27.714719626168232,40766.66666666666
154.19076598255037,83.59362871425465,27.42695687272953,40800.0
154.190828080852,83.59120688049181,27.43178501567982,40833.333333333336
154.4289129692303,83.56686434626013,28.091067159313198,40866.66666666666
153.90144999534263,83.79490483435279,27.872263793585248,40900.0
154.49683800623052,83.76104361370716,28.54088785046729,40933.33333333333
154.05074766355142,83.9607476635514,28.104875389408086,40966.66666666667
154.38953271028038,83.92679127725856,28.866012461059192,41000.0
154.42261682242992,83.94688473520249,28.888333333333332,41033.33333333333
154.2994092457725,84.13315412746537,28.651048666895882,41066.66666666667
154.3476635514019,84.10563862928349,28.91250778816199,41100.0
154.08867601246106,84.22066978193146,28.686682242990646,41133.333333333336
154.34746105918998,84.08702492211837,29.615342679127725,41166.66666666666
153.06462294381544,84.06070131534777,29.447874385815002,41200.0
153.0614337595752,84.06266975920896,29.444364757225266,41233.333333333336
153.26693014313182,83.87264625995668,30.277947325052644,41266.66666666666
153.1777719129382,83.8882541062502,29.83883938274289,41300.0
153.89137434860388,83.82456249513885,30.579855331725906,41333.333333333336
153.2885891472868,83.70741085271318,30.2506511627907,41366.66666666666
153.4429457364341,83.64925581395349,30.85711627906977,41400.0
153.4817054263566,83.63911627906977,30.89375193798449,41433.33333333333
152.65020791621745,83.64968427537349,30.674695826274448,41466.66666666667
152.03252804922187,83.38590300398117,31.118228978163827,41500.0
151.65063638557126,83.42490047050308,31.0054741223308,41533.33333333333
152.3003736179947,83.41817765916889,31.45500571864277,41566.66666666667
152.3376467879346,83.56805587535499,31.202578862537425,41600.0
152.30453603499885,83.56263719395194,31.170005372630293,41633.333333333336
152.9486831972894,83.63417526567072,32.04259972277838,41666.66666666666
152.47389496380717,83.81256738025566,31.873894963807178,41700.0
152.7117511165871,83.67535807793008,32.501309102109964,41733.333333333336
151.6206494057725,83.75335010914381,32.214118966771764,41766.66666666666
152.86055783048755,83.76924978752993,32.829653094336706,41800.0
152.84930850652862,83.7869272966082,32.830193927219355,41833.333333333336
151.74030813219568,83.93446487505894,32.486638986479285,41866.66666666666
152.6288804759329,83.93519276829173,33.082252955265396,41900.0
152.2377810399444,84.07033917947925,32.93638260063354,41933.33333333333
152.24129445059674,84.0925925925926,34.07175156884459,41966.66666666667
151.84464189136992,84.31088619330913,33.63547863710114,42000.0
151.86689330139842,84.31323495325658,33.64950938731361,42033.33333333333
152.17981727574752,84.21137873754155,34.259766826627285,42066.66666666667
151.98768518518517,84.4399074074074,33.962037037037035,42100.0
152.08001107419713,84.3926110495878,34.66474406299988,42133.333333333336
151.7266049382716,84.61987654320988,34.359074074074066,42166.66666666666
151.8050787498462,84.49835425126123,34.90985295927157,42200.0
151.4379670696883,84.49583814326509,35.02705206877696,42233.333333333336
151.07328817060576,84.65202928488974,34.75050124551917,42266.66666666666
151.90989147286822,84.54221705426356,35.19908527131783,42300.0
151.40358139534882,84.69789147286822,34.86103875968993,42333.333333333336
151.70858914728683,84.47437209302326,35.47736434108527,42366.66666666666
151.34102823364702,84.58729096989967,35.094594384382056,42400.0
151.2932254802831,84.59396437738198,35.08163646262736,42433.33333333333
151.54287936532629,84.3015789064323,35.937979310881225,42466.66666666667
150.4277906211247,84.27072584472648,35.68718710289817,42500.0
150.91585253456222,84.28814132104455,36.23689708141321,42533.33333333333
150.4373287199351,84.18820521456894,36.018310700124005,42566.66666666667
151.329859220658,84.19485105390059,36.619320214669045,42600.0
151.54982050881847,84.27126580302793,36.67917902294365,42633.333333333336
149.98390685482642,84.28879270931756,36.560166417751226,42666.66666666666
150.06324807096422,84.1499787350386,37.060529193754185,42700.0
149.94416461258172,84.3497558062985,36.573005496272025,42733.333333333336
150.76879722531896,84.28644865601387,37.41247058094884,42766.66666666666
150.4055493620711,84.44788182831661,37.108401461662325,42800.0
150.39142821751517,84.44314381270904,37.120711012015356,42833.333333333336
150.7581239791553,84.35137279303103,37.62660029555885,42866.66666666666
149.6570265015233,84.46908155610329,37.446759649095945,42900.0
149.9264816204051,84.45802777224918,38.0728906716475,42933.33333333333
149.23894466994233,84.63064973906674,37.76981414227729,42966.66666666667
150.16882716049386,84.61660493827159,38.34503086419753,43000.0
150.16899691358026,84.6413425925926,38.3750462962963,43033.33333333333
149.4920311710581,84.71690371572484,38.14832279498446,43066.66666666667
149.7858514432016,84.64800816849035,39.09189551647414,43100.0
149.11384348988398,84.72144419466555,38.649735706908075,43133.333333333336
149.58689688804898,84.7754884330519,39.37704593251853,43166.66666666666
149.13305800237742,84.97601267944772,39.0359200219452,43200.0
149.2135278717639,84.95382519099162,39.01622854693265,43233.333333333336
149.4619011895831,85.0272976407367,39.56997412618461,43266.66666666666
149.16058606488355,85.16272945787466,39.440528499471796,43300.0
149.14668721579642,84.96681112094484,39.92318491164893,43333.333333333336
148.6359294412061,84.99748222296823,39.760109256263924,43366.66666666666
148.90301217688528,84.84148686178169,40.33710745567185,43400.0
148.92097231971192,84.84217352824489,40.34705648976104,43433.33333333333
148.15307751973356,84.82643609983118,39.9704034919621,43466.66666666667
148.29835287676232,84.72739578105276,40.49573390518776,43500.0
147.90503566485683,84.6862709312406,40.305926906054665,43533.33333333333
147.95219844565105,84.51821265075817,41.091040440449575,43566.66666666667
147.63393587065127,84.58359826808369,41.373376328458534,43600.0
147.83788504769427,84.6666109727201,41.4224588371104,43633.333333333336
147.85519611869015,84.6579367614181,41.46677617070464,43666.66666666666
147.63606537456712,84.89382708548514,40.817668145087794,43700.0
147.91662343211158,84.7822199163793,41.06314279610584,43733.333333333336
147.52085940122691,84.95165868099002,40.62541581469161,43766.66666666666
147.85042878505809,84.90771202734459,41.020416882839434,43800.0
147.86231574449903,84.91489913632618,41.01515243995483,43833.333333333336
147.50961480041315,84.9451515887964,40.80632176924479,43866.66666666666
147.83401178686432,84.95245762196974,41.215991250987294,43900.0
147.5269913117443,85.02726471839117,40.92218543046358,43933.33333333333
147.9872468117029,85.17828436701012,41.52549872161918,43966.66666666667
147.50885427778962,85.39688804901094,41.34972111310921,44000.0
147.27758369281244,85.32430585090225,41.315906191141636,44033.33333333333
147.8107074278399,85.46206833490811,42.08107531470024,44066.66666666667
147.23470694016885,85.68048401353288,41.75686549422415,44100.0
147.64168368435492,85.571474290591,42.29363894053461,44133.33333333334
147.7851007751938,85.63283720930231,41.94232558139535,44166.66666666666
147.97843410852713,85.63713178294574,42.60203100775194,44200.0
148.0017519379845,85.65,42.653643410852716,44233.33333333334
146.85302873807643,85.81277720396136,42.23746886202078,44266.66666666666
147.7309413580247,85.91427469135803,43.008209876543205,44300.0
147.4739069767442,85.99412403100777,42.797286821705434,44333.33333333334
147.42920204257413,85.76351974898486,43.45791805094132,44366.66666666666
146.55100552889,85.84780363327056,43.00604532474634,44400.0
146.5301506774409,85.85337809101405,43.01131599732669,44433.33333333333
147.2026976744186,85.9031472868217,43.510604651162794,44466.66666666667
146.69519379844962,85.91762790697676,43.259069767441865,44500.0
147.01998449612404,85.83392248062016,43.968620155038785,44533.33333333333
146.53767441860467,85.74373643410853,43.758124031007746,44566.66666666667
146.9541705426357,85.530496124031,44.44818604651163,44600.0
146.95711627906974,85.52953488372094,44.49658914728681,44633.33333333334
146.54638759689922,85.65252713178295,43.97322480620154,44666.66666666666
146.74657364341084,85.58848062015505,44.801100775193795,44700.0
146.17731782945737,85.84858914728682,44.33565891472868,44733.33333333334
145.8622638070357,85.6848228932499,44.90628227717357,44766.66666666666
146.0528992248062,85.86299224806201,44.621100775193796,44800.0
145.16571290156537,85.74028824900839,44.61928119417446,44833.33333333334
146.27027777777778,85.88358024691358,45.127746913580246,44866.66666666666
145.3590892520809,85.87467343094964,45.04760313506289,44900.0
145.3462621491507,85.87464801526023,45.58150906833802,44933.33333333333
144.91829412299023,85.97561086383867,45.598192388046144,44966.66666666667
145.33112302055892,86.01252005934538,46.234308293214646,45000.0
145.35380143518938,86.04073939504042,46.27445726223998,45033.33333333333
144.85523965240557,86.14120265237534,45.86488327731856,45066.66666666667
145.47855276748285,86.12683030560787,46.3669117200316,45100.0
145.72640310077517,86.40213953488373,46.02071317829457,45133.33333333334
145.1441850607079,86.24604111787325,46.69352348078844,45166.66666666666
144.697656462894,86.41170860205284,46.49615466133769,45200.0
144.66730251006754,86.43458382535498,46.50290671268962,45233.33333333334
144.87015169406848,86.37622248463379,47.10760892603022,45266.66666666666
144.7048575247585,86.58282702472813,46.97091257063006,45300.0
144.7775002270869,86.49844066975504,47.54879341145124,45333.33333333334
144.47527780300962,86.67623459593666,47.15728040693978,45366.66666666666
144.7001998364974,86.5740000605565,47.60105368334998,45400.0
144.70867774850882,86.58060072062254,47.63357253156507,45433.33333333333
144.24993187392133,86.65708359826807,47.33095649014442,45466.66666666667
144.3443796434438,86.50986331509864,48.09762346097624,45500.0
144.13871193879731,86.66405559450148,47.77167850284982,45533.33333333333
144.3477580654961,86.33182453368978,48.433698888146296,45566.66666666667
144.29331241540544,86.45148886427955,47.970576473483455,45600.0
144.28742155777041,86.44901255075673,47.94258336409499,45633.33333333334
144.7034226995287,86.31076257436449,48.50917098045274,45666.66666666666
144.18612341577455,86.47312969115295,48.214178048480385,45700.0
143.78254155690797,86.43774790323069,48.67396372664789,45733.33333333334
144.16088372093026,86.79458914728683,48.34897674418605,45766.66666666666
144.21654948620875,86.5989183342347,49.08382909680908,45800.0
144.21015220582555,86.6199181024492,49.11779340183882,45833.33333333334
143.3745215383681,86.71008262956438,48.81624035482107,45866.66666666666
143.41970206194932,86.63808399188541,49.28391921760984,45900.0
142.93264601689526,86.7294334938081,49.17605292639354,45933.33333333333
143.2231507554425,86.65358645956339,50.0431616556151,45966.66666666667
142.65626378306033,86.84351568797432,49.577937978129604,46000.0
142.64218034706698,86.84531033748536,49.56960350412922,46033.33333333333
143.0116043862451,86.75469574607229,50.18989825249806,46066.66666666667
143.09449301100784,87.0496654775939,49.85973023868212,46100.0
143.43679287168732,86.88338411133397,50.98025016458196,46133.33333333334
142.9206162943095,87.14820628486086,50.55274467371758,46166.66666666666
142.96097879579563,87.13255665593294,50.938468315207494,46200.0
142.77023344536292,87.08214491173888,50.910179550065095,46233.33333333334
142.53409988456164,87.33430038276931,50.661932681207844,46266.66666666666
142.8154960811714,87.30246369767298,51.18922777811532,46300.0
142.49914940154326,87.43912145330822,50.79766389209553,46333.33333333334
142.6386592787719,87.32232718684713,51.258894238047645,46366.66666666666
142.30720319738398,87.41134526296665,51.12412571532382,46400.0
142.29475883368153,87.42254821812456,51.13233112302056,46433.33333333333
142.70247070578614,87.35598146970659,51.75877312501892,46466.66666666667
142.29113251108816,87.51651072361625,51.58246248253236,46500.0
142.46758612309375,87.34649735706905,52.256819976912325,46533.33333333333
142.05364845980924,87.36237013184277,51.9143629625129,46566.66666666667
141.83836310960888,87.00998913568323,52.353407170449046,46600.0
142.05816453204952,87.08140309443786,52.436218851242934,46633.33333333334
142.0795208631778,87.28009082873602,52.12580389527264,46666.66666666666
142.35525313176262,87.17205644792587,52.67347374196105,46700.0
141.86881648328205,87.31764150080771,52.30409338900911,46733.33333333334
141.93765068514054,87.17668691061128,52.81318094424267,46766.66666666666
141.35233003220122,87.31687830366366,52.572969196184474,46800.0
141.5562498095035,87.39690328873175,52.618991740071316,46833.33333333334
141.5980010936266,87.27187253174557,53.09157603742635,46866.66666666666
141.23433987484051,87.37992891427183,52.819764262713406,46900.0
141.67760246589555,87.2186193426313,53.609515671254606,46933.33333333333
141.00520991554777,87.41712740749745,53.378045446260394,46966.66666666667
141.52692254696328,87.4598802761915,53.89708651652709,47000.0
141.5579711254344,87.47509836642834,53.92611418160661,47033.33333333333
141.4351627906977,87.772,53.45584496124031,47066.66666666667
141.23560058326746,87.54102618628107,54.157148064888496,47100.0
140.87303299106873,87.74295218421534,53.77963424266359,47133.33333333334
141.4588222743759,87.77012405132739,54.475311652290536,47166.66666666666
140.98748818921638,87.98273339632419,54.268691517571405,47200.0
140.96676216891706,87.98518699137432,54.266984668840855,47233.33333333334
140.85784358252337,87.70813273987949,54.82998758591454,47266.66666666666
140.96280915466963,87.93170911775562,54.85846560846561,47300.0
141.30750212470062,87.91685080738623,55.24712972262999,47333.33333333334
140.79450985195274,88.13073166250746,54.980831942679536,47366.66666666666
141.0034746563443,88.23830351427964,55.65571946721936,47400.0
141.0493004968149,88.2488646407998,55.735164131793105,47433.33333333333
140.34268260942787,88.48702481742883,55.24013656475343,47466.66666666667
140.62908584288928,88.38887272838619,55.87389194237336,47500.0
139.81784307463005,88.36493741540052,55.43622150233457,47533.33333333333
140.44970892133256,88.33170776311378,56.3403639245329,47566.66666666667
140.01601694656955,88.45318357767685,55.97954829467525,47600.0
139.99437654302173,88.45382364595079,55.9310859825048,47633.33333333334
140.71088372093024,88.2677054263566,56.46263565891473,47666.66666666666
139.63644510602103,88.21711525609089,56.21675071389514,47700.0
139.89425238471352,88.0686402576098,56.73695242724345,47733.33333333334
139.260438429164,88.05477336724499,56.26743270657341,47766.66666666666
139.61490673795493,88.15205966340605,56.45915608481682,47800.0
139.62796949996962,88.15116349717479,56.45766753751746,47833.33333333334
139.25940215079896,88.29242359803148,55.85712983777872,47866.66666666666
139.6640895558661,88.22414788261742,56.314037912388365,47900.0
139.59606866002215,88.26479635781963,56.007090562323114,47933.33333333333
139.35549910792582,88.20812543469715,56.6317396957876,47966.66666666667
138.84579213160362,88.48937070972816,56.190556109951906,48000.0
138.83265293779672,88.49153285554445,56.18766820889656,48033.33333333333
139.20900419223526,88.42797253782128,56.63747797557568,48066.66666666667
138.79974482046296,88.57978917309678,56.28971991007959,48100.0
139.17524154957482,88.68100216404034,56.770322167697884,48133.33333333334
138.9491355973914,88.70498031253845,56.46363971945368,48166.66666666666
138.95586576853913,88.72940351732754,57.27719528178244,48200.0
138.96502484074492,88.74124478039562,57.31593465207718,48233.33333333334
138.26511331186586,88.89574093201288,56.86165623670939,48266.66666666666
138.6863817854857,88.89132555091591,57.420357219055745,48300.0
138.18828604410962,88.90031289871803,57.2335044656419,48333.33333333334
138.58439151831828,88.92068169390608,57.86144358709522,48366.66666666666
137.8085657880857,89.023599620236,57.47918079479182,48400.0
137.98072212646284,89.10527986936405,57.51811364117451,48433.33333333333
138.33240172549972,88.99283067015007,58.18429126921441,48466.66666666667
138.21104035929622,89.26788790451582,57.79494278331489,48500.0
138.50816722037652,89.22848221976129,58.456303063861206,48533.33333333333
138.59973058342624,89.54950142450144,58.29135699244395,48566.66666666667
138.4698843361634,89.36215700750584,58.703180755506345,48600.0
138.4988771994586,89.36829395841022,58.72245293466224,48633.33333333334
137.84005711161066,89.37638981712135,58.784996050792884,48666.66666666666
138.5185339506173,89.45094135802469,59.53742283950618,48700.0
137.38666122350236,89.43971695545677,59.27875049139677,48733.33333333334
137.57638573890958,89.3185914300402,59.83357525174634,48766.66666666666
137.07469231001843,89.36538752305785,59.37618313223864,48800.0
137.09185339744172,89.36059451450001,59.3835465239348,48833.33333333334
137.50873382344008,89.20880673187922,59.8889057658424,48866.66666666666
137.02731028616563,89.25508840148247,59.443131417461565,48900.0
137.3814782186038,89.07808797618324,59.834345950543785,48933.33333333333
137.1965139034269,89.2665695778152,59.409805973998395,48966.66666666667
137.32796310623644,89.23900544607777,59.96360685083209,49000.0
137.34411929792628,89.24029490738634,59.983100471791154,49033.33333333333
136.6091808037739,89.31901478726299,59.63737941879101,49066.66666666667
136.95595115134577,89.23102861656237,60.195288292119805,49100.0
136.72774773680055,89.1905644328331,59.95093869615408,49133.33333333334
137.238731040376,89.03495895260475,60.39144566179388,49166.66666666666
136.9947141381615,89.15733033598639,60.0831459991494,49200.0
137.01787775685037,89.14434352026247,60.094765781639225,49233.33333333334
137.96483024691358,89.20717592592592,60.62703703703704,49266.66666666666
137.03803390242422,89.19797679081354,60.33086761042591,49300.0
137.2767546644894,89.18724485167377,61.12216879857268,49333.33333333334
136.91431908857842,89.33268101761253,60.9511673417376,49366.66666666666
137.01862771780216,89.2131301218664,61.54241132178173,49400.0
137.0380870301491,89.21444555323717,61.589993649641656,49433.33333333333
136.75208092836746,89.42141077829756,61.143462543289395,49466.66666666667
136.90831292146723,89.42684991986452,61.69504672049351,49500.0
136.36871769368722,89.4921409949214,61.34567566345675,49533.33333333333
136.7392270706704,89.5822069007227,61.97555112038464,49566.66666666667
136.18372191478423,89.7676524841997,61.68403943270132,49600.0
135.94734541947346,89.71734707717346,61.62641469626415,49633.33333333334
136.4024463999516,89.71760561250719,62.24229641053554,49666.66666666666
135.98197707823036,89.87438386404185,61.995887386978744,49700.0
135.87701273732276,89.58850036049026,62.37800408555636,49733.33333333334
135.70529107705292,89.77235257772352,62.04885694048857,49766.66666666666
135.95168557951686,89.72675075726751,62.80633542806336,49800.0
135.7831350636866,89.64356524873828,62.78227889930304,49833.33333333334
135.0918638338967,89.60327136648962,62.24719338483824,49866.66666666666
135.37077498792854,89.4689763399324,62.90200989859971,49900.0
134.97205456301305,89.59258812168034,62.435462940608396,49933.33333333333
135.05090201362378,89.38995433789955,63.17290216333558,49966.66666666667
135.4506690237435,89.5727696668597,63.33826084306136,50000.0
135.45828888414763,89.56813679173399,63.34865433265264,50033.33333333333
135.62549910085647,89.56484501203937,63.75197354384468,50066.66666666667
135.2272941033693,89.69092370940093,63.34718366480074,50100.0
135.55129780488176,89.79893505666047,63.79726634202582,50133.33333333334
134.96171641114034,89.96150473252895,63.37022589131815,50166.66666666666
135.2778130575463,89.91859445402036,63.88935256584717,50200.0
135.2916024070882,89.9325501224712,63.91960748737489,50233.33333333334
135.01333616866157,90.00337201531076,63.671380399781285,50266.66666666666
135.14367738143682,89.88136895881371,64.41635396416355,50300.0
134.81861830222758,89.87731788079469,64.11487055990368,50333.33333333334
134.8925810389258,89.82518799825188,64.679400816794,50366.66666666666
134.60321100917432,90.06508597120117,64.38642991676286,50400.0
134.58348016282886,90.08685217813962,64.38002004982077,50433.33333333333
134.75621461228693,90.01215672025917,65.06591576588852,50466.66666666667
134.2901577829016,90.12682912126827,65.01776753017768,50500.0
134.5623521256235,90.10606266106063,65.43424205434242,50533.33333333333
134.41303033052102,90.30481720039916,65.1060056246031,50566.66666666667
134.58201847582018,90.34442485344424,65.62647497626476,50600.0
134.5914673659147,90.36249378362494,65.63979685639796,50633.33333333334
134.42063744899042,90.79714498096148,65.44430285653604,50666.66666666666
134.69878183831673,90.8329616650738,66.01105902698768,50700.0
134.40886542574978,90.86612357590376,65.78522125639041,50733.33333333334
134.71017460823128,90.73142796462324,66.36147393012637,50766.66666666666
133.98037436874412,90.6387250899634,65.83180622335118,50800.0
133.96492183011281,90.65865311923555,65.82574314312498,50833.33333333334
134.35020252127612,90.53118220846795,66.5379025774056,50866.66666666666
133.82040079491495,90.63031902789787,66.28084467300778,50900.0
134.05417254509322,90.53332119722693,66.65475811222865,50933.33333333333
133.7847694230242,90.54099484897436,66.2991252400256,50966.66666666667
133.76671505034926,90.41454232060238,66.7294142550425,51000.0
133.78851794732225,90.41469351961052,66.74746741661374,51033.33333333333
133.41744534155856,90.47768302639936,66.47447760742689,51066.66666666667
133.86961270650343,90.58097058511204,67.0388052003216,51100.0
132.9005400540054,90.46771677167715,66.67820282028202,51133.33333333334
133.17205419172055,90.49241225492412,67.23005862230059,51166.66666666666
132.79747426797474,90.63289479632894,66.80372831803729,51200.0
132.76808776768092,90.63202073632021,66.79438491794384,51233.33333333334
132.9642814227349,90.46283946166788,67.93895698149483,51266.66666666666
132.39977571770336,90.57797547846891,67.69512559808612,51300.0
132.6622906698565,90.55774521531099,68.19040071770335,51333.33333333334
132.3538703870387,90.88000300030005,67.7913591359136,51366.66666666666
132.7616044551475,90.97382600842865,68.3251806140879,51400.0
132.58663366336634,90.89341434143415,68.30645064506453,51433.33333333333
132.32385611077663,91.19131547260687,67.90708910295002,51466.66666666667
132.4533303330333,90.9590609060906,68.46417641764177,51500.0
132.34798314268514,91.07867248645394,68.29376881396749,51533.33333333333
132.63454244431065,91.01773028296208,68.84026189042747,51566.66666666667
132.05544253055442,91.11814880118149,68.32466808324668,51600.0
132.0636406106364,91.11076450110764,68.31874557318747,51633.33333333334
132.33127633955448,91.083940397351,68.91104756170981,51666.66666666666
131.91867850692353,91.21148404575555,68.57033413606261,51700.0
132.30141522271614,90.96679669781366,69.22720674952372,51733.33333333334
131.92056031983398,90.96589556566056,68.72165593432416,51766.66666666666
131.95598596873205,90.86942453657505,69.27191629622911,51800.0
132.3335272593659,90.91848982653826,69.31950334522406,51833.33333333334
131.6281014435255,90.89100314340652,68.9401226844081,51866.66666666666
131.34005400540053,90.85639063906393,69.17140714071408,51900.0
131.08725530087256,90.94651656946516,68.63758156637581,51933.33333333333
131.31464653314646,90.89954337899543,68.92523772925237,51966.66666666667
131.23646012882156,91.09755360004841,68.64469745078472,52000.0
131.77651305683563,91.2393701996928,68.6858064516129,52033.33333333333
131.77834254481988,91.09153819067012,69.10199488647672,52066.66666666667
131.54930875576036,91.38371735791092,68.80881720430108,52100.0
131.51103081892919,91.27467581181007,69.23976912595495,52133.33333333334
130.59437086092714,91.42834136062612,68.99372366044551,52166.66666666666
130.83437688139674,91.48883202889826,69.57655027092113,52200.0
130.86095725466586,91.50129440096329,69.65788681517158,52233.33333333334
130.57784553770537,91.78130736206556,69.2429496806687,52266.66666666666
131.08074467596492,91.627707947395,69.71995039576221,52300.0
130.64377152610564,91.77538175500624,69.36461032033894,52333.33333333334
130.93175653022038,91.72423725197358,70.07377548843307,52366.66666666666
130.26725499726595,91.83305486360048,69.99223828908197,52400.0
130.24202563946778,91.83302448508415,69.97732243757216,52433.33333333333
130.52725302896206,91.79079561754203,70.43443098239081,52466.66666666667
130.40712218871045,91.97441707365616,70.13172680925334,52500.0
130.68058851447555,91.91037555307192,70.55639420059096,52533.33333333333
130.18674753878508,92.01412722118931,70.23551464537171,52566.66666666667
129.9287477423239,91.8344671884407,70.66873871161953,52600.0
129.95048163756772,91.82674593618302,70.71786574352801,52633.33333333334
129.5005267910897,91.84417519566526,70.31864840457555,52666.66666666666
129.82365659681273,91.75558680335057,70.8889443285252,52700.0
129.23061408789886,91.86115291992779,70.435716435882,52733.33333333334
129.41458458759786,91.77713726670679,70.94667369054788,52766.66666666666
128.70448544854486,91.86686168616863,70.58709870987099,52800.0
128.70081008100814,91.85427542754276,70.58661866186618,52833.33333333334
128.9044404440444,91.72931293129317,71.19020402040205,52866.66666666666
128.53195319531955,91.76551155115513,70.91741674167417,52900.0
128.9973208910295,91.79414509331728,71.45621613485851,52933.33333333333
129.14899409376153,91.90693060169805,70.99673926418113,52966.66666666667
129.03746711421573,91.810260364692,71.5394478212223,53000.0
129.0470984910339,91.80589071335692,71.5655296501255,53033.33333333333
129.22729789590255,91.90693060169805,71.10059062384643,53066.66666666667
129.43212333695672,91.91515225745209,71.43423611004792,53100.0
129.18270894254178,92.0803159973667,71.13942771407137,53133.33333333334
129.1800120409392,91.9778446718844,71.74119506321495,53166.66666666666
128.8600350781699,92.03642384105959,71.29538238229156,53200.0
128.76721854304637,92.03198374473207,71.31521673690548,53233.33333333334
128.85871587158715,91.9273177317732,71.6498199819982,53266.66666666666
128.58205820582057,91.97544254425443,71.32538253825383,53300.0
129.07109377362485,92.01513502071423,71.7620127611963,53333.33333333334
128.7840273367807,92.19208321993408,71.32674105657867,53366.66666666666
129.1707490398863,92.12978922858265,71.81685264144667,53400.0
129.18227040430614,92.15083613051495,71.85785781245275,53433.33333333333
128.8890350479301,92.25117179231304,71.39679155704738,53466.66666666667
129.29674317336477,92.2277359460522,71.91579727236989,53500.0
128.89936785069236,92.32703190848886,71.51205599036723,53533.33333333333
129.42371898556473,92.28823206274606,71.71947386089663,53566.66666666667
129.16542494481234,92.31272994849155,71.32457996075546,53600.0
129.14718236448368,92.30688925680649,71.32270971302428,53633.33333333334
129.75858250276855,92.25382982650423,71.84177740863788,53666.66666666666
128.59725472547254,92.06651665166515,71.40871587158715,53700.0
128.8193519351935,91.96011101110113,71.74387938793879,53733.33333333334
128.45940594059405,92.02463246324629,71.31057605760576,53766.66666666666
128.8018901890189,91.88913891389141,71.70870087008701,53800.0
128.83411341134115,91.88088808880887,71.72224722472248,53833.33333333334
128.6970198675497,91.99101444912705,71.31908488862129,53866.66666666666
128.9671583383504,91.86879891631548,71.76166465984346,53900.0
128.44128412841283,91.88460846084608,71.29078907890789,53933.33333333333
128.93764298615292,91.88576158940396,71.72411198073448,53966.66666666667
129.12861888941623,92.00102576664574,71.42365693464183,54000.0
129.12863419936616,91.99813218610777,71.41649187807154,54033.33333333333
128.92524081878386,91.91086694762191,71.83406080674294,54066.66666666667
128.62659542444308,92.07956050571943,71.33991571342565,54100.0
128.92629762976298,91.9872487248725,71.80640564056407,54133.33333333334
128.71008428657436,92.11715833835041,71.21472004816377,54166.66666666666
129.36837366863006,92.0153813287759,71.65437788018433,54200.0
128.9202670267027,91.9890489048905,71.70426042604261,54233.33333333334
128.74462673088502,92.2157435279952,71.41435881998795,54266.66666666666
128.87235223522353,92.07575757575758,71.83628862886289,54300.0
129.25504845599156,92.29347643033206,71.43108226036101,54333.33333333334
129.5847941577231,92.34347872682457,71.89500436333573,54366.66666666666
129.36485141693586,92.52802486335872,71.50554985685197,54400.0
129.376624768437,92.53009170660013,71.51830304514905,54433.33333333333
129.63237748212563,92.55327097080392,71.90495583079444,54466.66666666667
129.27723257344948,92.72021066491112,71.51155135722706,54500.0
129.6654469739884,92.5863098427668,71.93594316946583,54533.33333333333
129.1225165562914,92.56865544686798,71.58033598639042,54566.66666666667
129.7970359936923,92.60619746773428,72.12981306551127,54600.0
129.7328934133927,92.63252461214913,72.1841872656893,54633.33333333334
129.14435254982146,92.67841120639669,71.69219031342509,54666.66666666666
128.83141452299574,92.45883552197638,71.83541704143431,54700.0
128.47477064220183,92.45207471367752,71.39337110991184,54733.33333333334
128.74619236073636,92.2094651316184,71.58720093542004,54766.66666666666
128.64230746016418,92.25101098503141,71.31037240463544,54800.0
128.6173647996137,92.25196161274746,71.30358220666345,54833.33333333334
128.95343433124094,92.09931796233705,71.70083896668275,54866.66666666666
129.12947477645193,92.27332377086704,71.34632404553363,54900.0
129.4501632740257,92.1615497299112,71.78098391674553,54933.33333333333
128.98863843489883,92.20229054013002,71.42321830001823,54966.66666666667
129.3964354380932,92.16339609973448,71.73102511673329,55000.0
129.44714194158757,92.14494766075623,71.73459578234198,55033.33333333333
129.09619434186834,92.24437696462904,71.37951292458877,55066.66666666667
129.52117984557634,92.15683462019716,72.08909878841517,55100.0
129.09057893612476,92.17168187505722,71.96063112277595,55133.33333333334
129.44726401562548,92.16631061738943,72.2687307351909,55166.66666666666
129.12518692587057,92.28479873043,71.71668141727956,55200.0
129.12692648091067,92.28775902584918,71.74567400128177,55233.33333333334
129.40289010284738,92.31870479445783,72.16451002533036,55266.66666666666
129.12077700125127,92.31228064821316,71.99481185338908,55300.0
129.5096285897397,92.3198492385632,72.12537003692741,55333.33333333334
129.20549638355664,92.45765556810206,71.70177312540055,55366.66666666666
129.53228858302558,92.43258461256752,72.00941496017334,55400.0
129.11318631863188,92.40295529552955,72.05862586258625,55433.33333333333
129.52346249827758,92.62858061454139,71.6683099346265,55466.66666666667
129.6282235175634,92.51248207037571,71.9577929013947,55500.0
129.5609106358222,92.70148659613882,71.62337523156299,55533.33333333333
129.73723532924046,92.7452271231073,71.96140361621019,55566.66666666667
128.9673540036123,92.84057796508127,71.65249849488261,55600.0
129.43366964190022,92.89249353154615,71.63124454583033,55633.33333333334
129.74495154400844,92.84089900026024,71.9726717393634,55666.66666666666
129.47053600134728,92.87857678705393,71.59817505396757,55700.0
129.77160616684782,92.73224428556118,72.05133426213696,55733.33333333334
129.34819419140499,92.83607636603027,71.64193089088599,55766.66666666666
129.89430107526883,92.70935483870967,72.15299539170508,55800.0
129.91026113671276,92.69440860215052,72.15047619047618,55833.33333333334
129.31804889998008,92.55103571811321,71.65120872054749,55866.66666666666
129.5487698455226,92.51475113676378,71.8213022643416,55900.0
129.01451781732126,92.62428131494715,71.3992779016672,55933.33333333333
129.51475113676378,92.43925777362708,71.71753142367224,55966.66666666667
129.2112313792734,92.41722675566851,71.34819419140499,56000.0
129.01739555040132,92.28441724906156,71.24868007446516,56033.33333333333
129.40955839716787,92.15089877010406,71.78453932309947,56066.66666666667
128.99829096346934,92.11757255775629,71.31487472151859,56100.0
129.37510299996947,92.11735892818994,71.76789147618031,56133.33333333334
129.03138828699608,92.26413769951479,71.27871028778955,56166.66666666666
129.3081606494339,92.17961668752098,71.62743003631701,56200.0
129.34850611896115,92.17773979918819,71.6322824793237,56233.33333333334
129.15129292527212,92.2906747094937,71.25899842307516,56266.66666666666
129.30381176183354,92.18750572222052,71.55201879940185,56300.0
129.22714408760922,92.31236926295068,71.28383782453551,56333.33333333334
129.41127054206524,92.20653973509931,71.54119143978414,56366.66666666666
128.97774350600258,92.34899755057606,71.3959146028002,56400.0
128.7605678376057,92.25454737254549,71.32350769323509,56433.33333333332
128.86349435231915,92.10843246815668,71.71124729632301,56466.66666666668
129.0193383531404,92.30498351930812,71.52402552239258,56500.0
128.9796052631579,92.1679874401914,71.94174641148325,56533.33333333332
129.14073610644854,92.47474593340858,71.51815851313822,56566.66666666668
129.0432493249325,92.37776777677769,72.01311131113111,56600.0
129.07520252025202,92.38888388838885,72.00711071107109,56633.33333333334
128.82455505824555,92.53920460539206,71.476302424763,56666.66666666666
129.41970580156865,92.51271095919675,71.94492934965056,56700.0
128.7069306930693,92.51317131713171,71.63147314731474,56733.33333333334
129.47198400830104,92.3726615192114,72.29091769157995,56766.66666666666
128.90165562913907,92.41335039133051,71.95468091511138,56800.0
128.7040804080408,92.32509750975098,71.88864386438644,56833.33333333334
129.0444194419442,92.14770477047705,72.26438643864388,56866.66666666666
129.1296731467635,92.26158940397352,71.63817255165256,56900.0
129.34018982512893,92.16663106173893,71.90369884334851,56933.33333333332
128.97366252632222,92.21395001068147,71.44599749748222,56966.66666666668
129.32251960814233,92.09994811853387,71.89165929136021,57000.0
129.33248390148626,92.11040070802942,71.87600329599903,57033.33333333332
128.6173594317957,92.00892762087268,71.30125777554714,57066.66666666668
129.22579119235814,91.98263496810816,71.7074953459273,57100.0
128.91552476577044,92.068315683462,71.30106509598072,57133.33333333334
129.24730674153878,92.01208532975252,71.616657002472,57166.66666666666
128.9560380870998,92.12445448164313,71.23676259651478,57200.0
128.93881038850063,92.12739951780756,71.24698629718924,57233.33333333334
129.21164586321603,92.10029908139286,71.6093935972167,57266.66666666666
128.96440397350992,92.2386252146186,71.20414827078734,57300.0
