Time[ms],HR[bpm]
833,77.77778
867,77.77778
900,71.64179
933,71.64179
967,71.64179
1000,71.64179
1033,72.0
1067,72.0
1100,72.0
1133,72.0
1167,72.0
1200,72.0
1233,72.0
1267,72.0
1300,72.0
1333,72.0
1367,72.0
1400,72.0
1433,72.0
1467,72.0
1500,72.0
1533,72.4138
1567,72.4138
1600,72.4138
1633,72.4138
1667,72.72726999999998
1700,72.72726999999998
1733,72.72726999999998
1767,72.72726999999998
1800,72.72726999999998
1833,81.81818
1867,83.72093000000002
1900,83.72093000000002
1933,83.72093000000002
1967,83.72093000000002
2000,83.72093000000002
2033,83.72093000000002
2067,83.72093000000002
2100,83.72093000000002
2133,83.72093000000002
2167,83.72093000000002
2200,83.72093000000002
2233,83.72093000000002
2267,83.72093000000002
2300,83.72093000000002
2333,84.375
2367,84.375
2400,84.375
2433,84.375
2467,84.375
2500,84.375
2533,84.375
2567,84.375
2600,84.375
2633,84.375
2667,84.375
2700,84.375
2733,84.375
2767,83.72093000000002
2800,83.72093000000002
2833,83.72093000000002
2867,83.72093000000002
2900,83.72093000000002
2933,83.72093000000002
2967,83.72093000000002
3000,83.72093000000002
3033,83.72093000000002
3067,83.50516
3100,83.50516
3133,83.50516
3167,83.50516
3200,83.50516
3233,83.50516
3267,83.50516
3300,83.50516
3333,83.50516
3367,83.50516
3400,83.50516
3433,83.72093000000002
3467,83.72093000000002
3500,83.72093000000002
3533,83.72093000000002
3567,83.72093000000002
3600,83.72093000000002
3633,83.72093000000002
3667,83.72093000000002
3700,83.72093000000002
3733,85.71429
3767,85.71429
3800,85.71429
3833,85.71429
3867,85.71429
3900,85.71429
3933,85.71429
3967,85.71429
4000,85.71429
4033,85.71429
4067,85.71429
4100,85.71429
4133,85.71429
4167,85.71429
4200,85.71429
4233,87.09676999999998
4267,87.09676999999998
4300,87.09676999999998
4333,87.09676999999998
4367,87.09676999999998
4400,87.09676999999998
4433,87.09676999999998
4467,87.09676999999998
4500,87.09676999999998
4533,87.09676999999998
4567,87.09676999999998
4600,87.09676999999998
4633,87.09676999999998
4667,87.09676999999998
4700,87.09676999999998
4733,87.09676999999998
4767,87.09676999999998
4800,87.09676999999998
4833,87.09676999999998
4867,89.44099
4900,89.44099
4933,89.44099
4967,89.44099
5000,89.44099
5033,89.44099
5067,89.44099
5100,89.44099
5133,89.44099
5167,89.44099
5200,89.44099
5233,89.44099
5267,89.44099
5300,89.44099
5333,89.44099
5367,89.44099
5400,82.65306
5433,82.65306
5467,82.65306
5500,82.65306
5533,82.65306
5567,82.65306
5600,82.65306
5633,82.65306
5667,82.65306
5700,83.23699
5733,83.23699
5767,83.23699
5800,83.23699
5833,83.23699
5867,83.23699
5900,83.23699
5933,83.23699
5967,83.23699
6000,83.23699
6033,83.23699
6067,83.23699
6100,83.23699
6133,83.23699
6167,82.65306
6200,82.65306
6233,82.23351
6267,82.23351
6300,82.23351
6333,82.23351
6367,82.23351
6400,82.23351
6433,82.23351
6467,81.81818
6500,81.81818
6533,81.81818
6567,81.81818
6600,81.81818
6633,81.81818
6667,81.81818
6700,81.81818
6733,81.81818
6767,81.81818
6800,81.81818
6833,81.81818
6867,82.65306
6900,82.65306
6933,82.65306
6967,82.65306
7000,82.65306
7033,82.65306
7067,82.65306
7100,82.65306
7133,82.65306
7167,80.89888
7200,80.89888
7233,80.89888
7267,80.89888
7300,80.89888
7333,80.89888
7367,80.0
7400,80.0
7433,80.0
7467,80.89888
7500,80.89888
7533,80.89888
7567,80.89888
7600,80.89888
7633,80.89888
7667,80.89888
7700,79.80296
7733,79.80296
7767,78.68852
7800,78.68852
7833,78.68852
7867,78.68852
7900,78.68852
7933,78.26087
7967,78.26087
8000,78.26087
8033,78.26087
8067,78.26087
8100,78.26087
8133,78.26087
8167,78.26087
8200,78.26087
8233,78.26087
8267,78.26087
8300,78.26087
8333,78.26087
8367,78.26087
8400,78.26087
8433,77.77778
8467,77.77778
8500,77.77778
8533,77.77778
8567,77.77778
8600,77.77778
8633,77.77778
8667,77.77778
8700,77.77778
8733,75.0
8767,77.77778
8800,74.22681
8833,74.22681
8867,74.22681
8900,74.22681
8933,74.22681
8967,64.94846
9000,64.94846
9033,64.94846
9067,55.6701
9100,55.6701
9133,55.6701
9167,52.63158000000001
9200,52.63158000000001
9233,52.63158000000001
9267,52.63158000000001
9300,52.63158000000001
9333,52.63158000000001
9367,52.63158000000001
9400,52.63158000000001
9433,52.63158000000001
9467,52.63158000000001
9500,52.63158000000001
9533,52.63158000000001
9567,52.63158000000001
9600,52.63158000000001
9633,52.63158000000001
9667,52.63158000000001
9700,52.63158000000001
9733,52.63158000000001
9767,52.63158000000001
9800,52.63158000000001
9833,52.63158000000001
9867,52.63158000000001
9900,52.63158000000001
9933,52.55474
9967,52.32558
10000,52.55474
10033,51.72414000000001
10067,52.32558
10100,52.32558
10133,52.32558
10167,52.32558
10200,52.32558
10233,52.32558
10267,52.32558
10300,52.32558
10333,52.32558
10367,52.32558
10400,52.32558
10433,52.32558
10467,52.32558
10500,52.32558
10533,52.32558
10567,52.32558
10600,52.32558
10633,52.32558
10667,52.32558
10700,52.32558
10733,52.32558
10767,52.32558
10800,52.32558
10833,56.25
10867,56.25
10900,56.25
10933,56.25
10967,56.25
11000,46.875
11033,46.875
11067,45.56962
11100,45.56962
11133,45.56962
11167,45.56962
11200,45.56962
11233,45.56962
11267,45.56962
11300,45.56962
11333,45.56962
11367,45.56962
11400,45.56962
11433,45.56962
11467,45.85987
11500,45.85987
11533,45.85987
11567,45.85987
11600,45.85987
11633,47.87234
11667,47.87234
11700,47.87234
11733,47.87234
11767,47.87234
11800,47.87234
11833,47.87234
11867,47.87234
11900,47.87234
11933,47.87234
11967,47.87234
12000,47.87234
12033,47.87234
12067,47.87234
12100,47.87234
12133,47.87234
12167,47.87234
12200,44.7205
12233,44.7205
12267,44.7205
12300,44.7205
12333,44.7205
12367,44.7205
12400,44.7205
12433,44.7205
12467,44.7205
12500,44.7205
12533,44.7205
12567,44.7205
12600,44.7205
12633,44.7205
12667,44.7205
12700,44.7205
12733,44.7205
12767,45.0
12800,45.28302
12833,45.28302
12867,46.875
12900,46.875
12933,46.875
12967,46.875
13000,46.875
13033,46.875
13067,46.875
13100,46.875
13133,48.32215
13167,48.32215
13200,48.32215
13233,48.32215
13267,48.32215
13300,48.32215
13333,48.32215
13367,48.32215
13400,48.32215
13433,52.63158000000001
13467,52.63158000000001
13500,52.63158000000001
13533,52.32558
13567,52.32558
13600,52.32558
13633,52.32558
13667,52.32558
13700,52.32558
13733,52.32558
13767,52.32558
13800,52.32558
13833,52.32558
13867,52.32558
13900,52.32558
13933,52.32558
13967,52.32558
14000,52.32558
14033,52.63158000000001
14067,52.63158000000001
14100,52.63158000000001
14133,52.63158000000001
14167,52.63158000000001
14200,52.63158000000001
14233,52.63158000000001
14267,52.63158000000001
14300,52.63158000000001
14333,52.63158000000001
14367,54.27136
14400,54.27136
14433,54.27136
14467,54.27136
14500,54.0
14533,54.0
14567,53.89222
14600,53.89222
14633,53.89222
14667,53.89222
14700,53.89222
14733,53.89222
14767,53.89222
14800,53.89222
14833,53.89222
14867,53.89222
14900,53.89222
14933,53.89222
14967,53.89222
15000,53.89222
15033,53.89222
15067,53.89222
15100,53.89222
15133,53.89222
15167,53.89222
15200,53.89222
15233,53.89222
15267,53.89222
15300,53.89222
15333,53.89222
15367,53.89222
15400,53.89222
15433,53.89222
15467,53.89222
15500,53.89222
15533,53.89222
15567,53.89222
15600,53.89222
15633,53.89222
15667,63.15789
15700,63.15789
15733,58.82353000000001
15767,58.82353000000001
15800,58.82353000000001
15833,58.82353000000001
15867,58.82353000000001
15900,59.21053000000001
15933,59.21053000000001
15967,59.21053000000001
16000,59.21053000000001
16033,59.21053000000001
16067,59.21053000000001
16100,59.21053000000001
16133,59.21053000000001
16167,59.21053000000001
16200,59.21053000000001
16233,59.21053000000001
16267,59.21053000000001
16300,59.21053000000001
16333,59.21053000000001
16367,59.21053000000001
16400,59.21053000000001
16433,59.21053000000001
16467,61.36364
16500,61.36364
16533,61.36364
16567,61.36364
16600,61.36364
16633,61.36364
16667,61.36364
16700,61.36364
16733,61.36364
16767,61.36364
16800,61.36364
16833,61.36364
16867,61.36364
16900,61.36364
16933,61.36364
16967,61.36364
17000,61.36364
17033,61.36364
17067,61.36364
17100,61.36364
17133,61.36364
17167,61.36364
17200,61.36364
17233,61.36364
17267,61.36364
17300,61.36364
17333,61.36364
17367,61.36364
17400,61.36364
17433,61.64384
17467,61.64384
17500,61.64384
17533,61.64384
17567,61.64384
17600,61.64384
17633,61.64384
17667,61.64384
17700,61.64384
17733,61.64384
17767,61.64384
17800,61.64384
17833,61.64384
17867,61.64384
17900,61.64384
17933,61.64384
17967,61.64384
18000,61.64384
18033,61.64384
18067,61.64384
18100,59.66851
18133,59.66851
18167,59.66851
18200,59.66851
18233,59.66851
18267,59.66851
18300,59.66851
18333,59.66851
18367,59.66851
18400,59.66851
18433,60.0
18467,60.0
18500,61.36364
18533,61.36364
18567,61.36364
18600,61.36364
18633,61.36364
18667,61.36364
18700,61.36364
18733,61.36364
18767,61.36364
18800,61.36364
18833,61.01695
18867,61.01695
18900,61.01695
18933,61.01695
18967,61.01695
19000,61.01695
19033,61.01695
19067,61.01695
19100,61.01695
19133,61.01695
19167,61.01695
19200,61.01695
19233,61.01695
19267,61.01695
19300,61.01695
19333,61.01695
19367,61.01695
19400,61.01695
19433,61.01695
19467,58.82353000000001
19500,58.82353000000001
19533,58.82353000000001
19567,58.82353000000001
19600,58.82353000000001
19633,58.82353000000001
19667,57.75401
19700,57.75401
19733,57.75401
19767,57.75401
19800,57.75401
19833,57.75401
19867,57.75401
19900,57.75401
19933,58.06452
19967,58.06452
20000,58.06452
20033,58.06452
20067,58.06452
20100,58.06452
20133,58.06452
20167,58.06452
20200,58.06452
20233,58.06452
20267,57.32484
20300,57.32484
20333,57.32484
20367,56.96202
20400,56.96202
20433,56.60378000000001
20467,59.01639
20500,59.01639
20533,58.37838000000001
20567,58.37838000000001
20600,58.37838000000001
20633,58.37838000000001
20667,58.37838000000001
20700,58.37838000000001
20733,58.37838000000001
20767,58.37838000000001
20800,58.37838000000001
20833,58.37838000000001
20867,58.37838000000001
20900,58.37838000000001
20933,58.37838000000001
20967,58.37838000000001
21000,58.37838000000001
21033,58.37838000000001
21067,58.37838000000001
21100,58.37838000000001
21133,58.37838000000001
21167,58.37838000000001
21200,62.06896999999999
21233,62.06896999999999
21267,62.06896999999999
21300,62.06896999999999
21333,62.06896999999999
21367,62.5
21400,62.5
21433,62.5
21467,62.7907
21500,62.42775
21533,62.42775
21567,62.42775
21600,62.42775
21633,62.7907
21667,62.7907
21700,62.7907
21733,62.7907
21767,62.7907
21800,62.7907
21833,62.7907
21867,62.7907
21900,62.7907
21933,62.7907
21967,62.7907
22000,62.7907
22033,62.7907
22067,62.7907
22100,62.7907
22133,73.25581
22167,73.25581
22200,73.25581
22233,73.84615
22267,73.84615
22300,73.84615
22333,73.84615
22367,73.84615
22400,73.84615
22433,73.84615
22467,73.84615
22500,73.84615
22533,73.84615
22567,72.83237
22600,72.83237
22633,72.83237
22667,72.83237
22700,72.83237
22733,76.59574
22767,76.59574
22800,76.59574
22833,76.59574
22867,76.59574
22900,76.59574
22933,76.59574
22967,76.59574
23000,76.59574
23033,76.59574
23067,76.59574
23100,76.59574
23133,76.59574
23167,76.59574
23200,76.59574
23233,76.59574
23267,76.59574
23300,75.0
23333,75.0
23367,75.0
23400,75.0
23433,75.0
23467,75.0
23500,75.39267
23533,75.39267
23567,75.39267
23600,75.39267
23633,75.39267
23667,75.39267
23700,75.39267
23733,75.39267
23767,75.39267
23800,75.39267
23833,75.39267
23867,75.39267
23900,75.39267
23933,75.39267
23967,72.83237
24000,72.83237
24033,72.83237
24067,72.83237
24100,72.83237
24133,72.83237
24167,74.6114
24200,74.6114
24233,74.6114
24267,74.6114
24300,74.6114
24333,74.6114
24367,74.6114
24400,74.6114
24433,74.6114
24467,74.6114
24500,74.6114
24533,74.6114
24567,72.83237
24600,72.83237
24633,72.83237
24667,72.83237
24700,72.83237
24733,75.78947
24767,75.78947
24800,75.39267
24833,75.39267
24867,75.39267
24900,75.39267
24933,75.39267
24967,75.39267
25000,75.39267
25033,75.39267
25067,75.39267
25100,75.39267
25133,75.39267
25167,75.39267
25200,75.39267
25233,82.35294
25267,82.35294
25300,82.35294
25333,82.35294
25367,82.35294
25400,82.35294
25433,82.35294
25467,82.35294
25500,82.35294
25533,81.81818
25567,81.81818
25600,81.81818
25633,81.81818
25667,81.81818
25700,81.81818
25733,81.81818
25767,81.81818
25800,81.81818
25833,81.81818
25867,81.81818
25900,81.81818
25933,81.81818
25967,81.81818
26000,81.81818
26033,81.81818
26067,81.81818
26100,81.81818
26133,81.81818
26167,81.81818
26200,81.81818
26233,81.81818
26267,81.81818
26300,81.81818
26333,81.0
26367,81.0
26400,81.0
26433,81.0
26467,81.0
26500,82.75862
26533,82.75862
26567,82.28571
26600,82.28571
26633,82.28571
26667,82.28571
26700,82.28571
26733,82.28571
26767,82.28571
26800,82.28571
26833,82.28571
26867,82.28571
26900,82.28571
26933,82.28571
26967,82.28571
27000,82.28571
27033,82.28571
27067,82.28571
27100,82.28571
27133,82.28571
27167,82.28571
27200,81.0
27233,72.0
27267,72.0
27300,72.0
27333,72.0
27367,73.68421
27400,73.68421
27433,73.68421
27467,73.68421
27500,73.68421
27533,73.68421
27567,73.68421
27600,73.68421
27633,73.68421
27667,73.68421
27700,73.68421
27733,73.68421
27767,73.68421
27800,73.68421
27833,73.68421
27867,73.68421
27900,73.68421
27933,73.68421
27967,73.68421
28000,73.68421
28033,73.68421
28067,73.68421
28100,73.68421
28133,73.68421
28167,73.68421
28200,73.68421
28233,73.68421
28267,73.25581
28300,73.25581
28333,80.0
28367,80.0
28400,80.0
28433,80.0
28467,80.0
28500,80.0
28533,80.0
28567,80.0
28600,80.0
28633,80.0
28667,80.0
28700,80.0
28733,80.0
28767,80.0
28800,80.0
28833,80.0
28867,80.0
28900,80.0
28933,80.0
28967,80.0
29000,80.0
29033,80.0
29067,80.0
29100,80.0
29133,80.0
29167,80.0
29200,80.0
29233,80.0
29267,80.0
29300,80.0
29333,63.63636
29367,63.63636
29400,63.63636
29433,63.63636
29467,63.63636
29500,63.63636
29533,63.63636
29567,61.36364
29600,61.36364
29633,61.36364
29667,61.36364
29700,61.36364
29733,61.36364
29767,61.36364
29800,51.13636
29833,51.13636
29867,51.13636
29900,51.13636
29933,51.13636
29967,51.42857
30000,51.42857
30033,51.42857
30067,51.42857
30100,51.42857
30133,51.42857
30167,51.42857
30200,51.42857
30233,51.42857
30267,51.42857
30300,47.05882
30333,47.05882
30367,47.05882
30400,47.05882
30433,47.05882
30467,47.05882
30500,47.05882
30533,47.05882
30567,47.05882
30600,50.27933
30633,50.5618
30667,50.5618
30700,50.5618
30733,50.5618
30767,50.27933
30800,50.27933
30833,50.27933
30867,50.27933
30900,50.27933
30933,50.27933
30967,50.27933
31000,50.27933
31033,50.27933
31067,50.27933
31100,50.27933
31133,50.27933
31167,50.27933
31200,50.27933
31233,50.27933
31267,50.27933
31300,47.05882
31333,47.05882
31367,47.05882
31400,47.05882
31433,47.05882
31467,47.05882
31500,47.05882
31533,47.05882
31567,47.05882
31600,47.05882
31633,47.05882
31667,47.05882
31700,47.05882
31733,48.12834
31767,48.12834
31800,48.12834
31833,48.12834
31867,48.12834
31900,48.12834
31933,48.12834
31967,48.12834
32000,48.12834
32033,48.12834
32067,48.12834
32100,48.12834
32133,48.12834
32167,48.12834
32200,48.12834
32233,48.12834
32267,48.12834
32300,48.12834
32333,44.7205
32367,44.7205
32400,44.7205
32433,44.7205
32467,44.7205
32500,44.7205
32533,44.7205
32567,44.7205
32600,44.7205
32633,44.7205
32667,44.7205
32700,44.7205
32733,44.7205
32767,44.7205
32800,44.7205
32833,44.7205
32867,44.7205
32900,44.7205
32933,44.7205
32967,44.7205
33000,45.45454
33033,45.45454
33067,45.45454
33100,45.45454
33133,45.45454
33167,45.45454
33200,42.10526
33233,42.10526
33267,42.10526
33300,42.10526
33333,42.10526
33367,42.10526
33400,42.10526
33433,42.10526
33467,42.10526
33500,42.10526
33533,42.10526
33567,42.10526
33600,42.10526
33633,42.10526
33667,42.10526
33700,42.10526
33733,42.10526
33767,42.10526
33800,42.10526
33833,42.10526
33867,42.10526
33900,42.10526
33933,42.10526
33967,42.10526
34000,42.10526
34033,42.10526
34067,44.11765
34100,50.34965
34133,50.34965
34167,50.34965
34200,50.34965
34233,50.34965
34267,50.34965
34300,50.34965
34333,50.34965
34367,50.34965
34400,50.34965
34433,50.34965
34467,50.34965
34500,50.34965
34533,50.34965
34567,50.34965
34600,50.34965
34633,50.34965
34667,50.34965
34700,50.34965
34733,50.34965
34767,50.34965
34800,50.34965
34833,50.34965
34867,50.34965
34900,50.34965
34933,50.34965
34967,50.34965
35000,52.63158000000001
35033,52.63158000000001
35067,52.63158000000001
35100,52.63158000000001
35133,52.63158000000001
35167,52.63158000000001
35200,52.63158000000001
35233,52.63158000000001
35267,52.63158000000001
35300,52.63158000000001
35333,52.63158000000001
35367,52.63158000000001
35400,52.63158000000001
35433,52.63158000000001
35467,52.63158000000001
35500,52.63158000000001
35533,52.63158000000001
35567,52.63158000000001
35600,52.63158000000001
35633,52.63158000000001
35667,52.63158000000001
35700,52.63158000000001
35733,52.63158000000001
35767,52.63158000000001
35800,52.63158000000001
35833,52.63158000000001
35867,52.63158000000001
35900,52.63158000000001
35933,52.63158000000001
35967,52.63158000000001
36000,52.63158000000001
36033,52.63158000000001
36067,52.63158000000001
36100,52.63158000000001
36133,54.54546
36167,54.54546
36200,54.54546
36233,54.54546
36267,54.54546
36300,54.54546
36333,54.54546
36367,54.54546
36400,54.54546
36433,54.54546
36467,51.13636
36500,51.13636
36533,51.13636
36567,51.13636
36600,51.13636
36633,51.13636
36667,51.13636
36700,51.13636
36733,51.13636
36767,51.13636
36800,51.13636
36833,51.13636
36867,51.13636
36900,51.13636
36933,51.13636
36967,51.13636
37000,51.13636
37033,51.13636
37067,51.13636
37100,51.13636
37133,51.13636
37167,51.13636
37200,51.13636
37233,51.13636
37267,51.13636
37300,51.13636
37333,53.73134
37367,53.73134
37400,53.73134
37433,53.89222
37467,53.57143000000001
37500,53.57143000000001
37533,53.57143000000001
37567,53.57143000000001
37600,53.57143000000001
37633,53.57143000000001
37667,53.57143000000001
37700,53.57143000000001
37733,53.57143000000001
37767,53.57143000000001
37800,53.57143000000001
37833,53.57143000000001
37867,53.57143000000001
37900,53.57143000000001
37933,53.57143000000001
37967,53.57143000000001
38000,53.57143000000001
38033,53.57143000000001
38067,53.57143000000001
38100,53.57143000000001
38133,53.57143000000001
38167,53.57143000000001
38200,53.57143000000001
38233,53.57143000000001
38267,56.25
38300,56.25
38333,56.25
38367,56.25
38400,56.25
38433,56.25
38467,56.25
38500,56.25
38533,56.25
38567,58.06452
38600,58.44156
38633,58.44156
38667,58.44156
38700,58.44156
38733,58.44156
38767,58.44156
38800,58.44156
38833,58.44156
38867,58.44156
38900,58.44156
38933,58.44156
38967,58.44156
39000,58.44156
39033,58.44156
39067,58.44156
39100,58.44156
39133,58.44156
39167,58.44156
39200,58.44156
39233,58.44156
39267,58.44156
39300,58.44156
39333,58.44156
39367,58.44156
39400,58.44156
39433,58.44156
39467,58.44156
39500,58.44156
39533,58.44156
39567,58.44156
39600,58.44156
39633,58.44156
39667,58.44156
39700,58.44156
39733,58.44156
39767,58.44156
39800,58.44156
39833,59.01639
39867,59.01639
39900,53.57143000000001
39933,53.57143000000001
39967,53.57143000000001
40000,53.57143000000001
40033,53.57143000000001
40067,53.57143000000001
40100,53.57143000000001
40133,53.57143000000001
40167,53.57143000000001
40200,53.57143000000001
40233,53.57143000000001
40267,53.57143000000001
40300,53.57143000000001
40333,53.57143000000001
40367,53.57143000000001
40400,53.57143000000001
40433,53.57143000000001
40467,53.57143000000001
40500,53.57143000000001
40533,53.57143000000001
40567,53.57143000000001
40600,53.57143000000001
40633,53.57143000000001
40667,53.57143000000001
40700,53.57143000000001
40733,53.57143000000001
40767,53.57143000000001
40800,53.57143000000001
40833,53.57143000000001
40867,52.94118
40900,51.42857
40933,51.42857
40967,51.42857
41000,51.42857
41033,51.42857
41067,51.42857
41100,51.42857
41133,51.42857
41167,51.42857
41200,51.42857
41233,51.42857
41267,51.42857
41300,51.42857
41333,51.42857
41367,51.42857
41400,51.42857
41433,51.42857
41467,51.42857
41500,51.42857
41533,51.42857
41567,51.42857
41600,51.42857
41633,51.42857
41667,51.42857
41700,51.42857
41733,53.73134
41767,53.73134
41800,53.73134
41833,53.73134
41867,56.96202
41900,56.96202
41933,56.96202
41967,56.96202
42000,56.96202
42033,56.96202
42067,56.96202
42100,56.96202
42133,56.96202
42167,56.96202
42200,56.96202
42233,56.96202
42267,56.96202
42300,56.96202
42333,56.96202
42367,56.96202
42400,56.96202
42433,56.96202
42467,56.96202
42500,56.96202
42533,56.96202
42567,56.96202
42600,56.96202
42633,56.96202
42667,56.96202
42700,57.75401
42733,57.75401
42767,57.75401
42800,57.75401
42833,57.75401
42867,57.75401
42900,57.75401
42933,57.75401
42967,57.75401
43000,57.75401
43033,57.75401
43067,57.75401
43100,57.75401
43133,57.75401
43167,57.75401
43200,57.75401
43233,57.75401
43267,57.75401
43300,55.90062
43333,55.90062
43367,55.90062
43400,55.90062
43433,55.90062
43467,55.90062
43500,55.90062
43533,55.90062
43567,55.90062
43600,55.90062
43633,55.90062
43667,55.90062
43700,55.90062
43733,55.90062
43767,55.90062
43800,55.90062
43833,55.90062
43867,55.90062
43900,55.90062
43933,55.90062
43967,55.90062
44000,55.90062
44033,55.90062
44067,53.73134
44100,53.73134
44133,53.73134
44167,50.84746
44200,50.84746
44233,50.84746
44267,50.84746
44300,50.84746
44333,50.84746
44367,50.84746
44400,50.84746
44433,50.84746
44467,50.84746
44500,50.84746
44533,50.84746
44567,50.84746
44600,50.84746
44633,50.84746
44667,50.84746
44700,50.84746
44733,50.84746
44767,50.84746
44800,50.84746
44833,50.84746
44867,50.84746
44900,50.84746
44933,50.84746
44967,54.961830000000006
45000,54.961830000000006
45033,54.961830000000006
45067,54.961830000000006
45100,54.961830000000006
45133,54.961830000000006
45167,54.54546
45200,54.21686999999999
45233,54.21686999999999
45267,54.21686999999999
45300,54.21686999999999
45333,54.21686999999999
45367,54.21686999999999
45400,54.21686999999999
45433,54.21686999999999
45467,54.21686999999999
45500,54.21686999999999
45533,54.21686999999999
45567,54.21686999999999
45600,54.21686999999999
45633,54.21686999999999
45667,54.21686999999999
45700,54.21686999999999
45733,54.21686999999999
45767,54.21686999999999
45800,54.21686999999999
45833,54.21686999999999
45867,54.21686999999999
45900,54.21686999999999
45933,54.21686999999999
45967,54.21686999999999
46000,54.21686999999999
46033,54.21686999999999
46067,54.21686999999999
46100,54.21686999999999
46133,54.21686999999999
46167,54.21686999999999
46200,54.21686999999999
46233,54.82233000000001
46267,54.82233000000001
46300,54.82233000000001
46333,54.82233000000001
46367,54.82233000000001
46400,54.82233000000001
46433,54.82233000000001
46467,54.82233000000001
46500,55.55556
46533,55.55556
46567,55.55556
46600,55.55556
46633,55.55556
46667,55.55556
46700,55.55556
46733,55.55556
46767,55.55556
46800,55.55556
46833,55.55556
46867,55.55556
46900,55.55556
46933,55.55556
46967,55.55556
47000,55.55556
47033,55.55556
47067,55.55556
47100,55.55556
47133,55.55556
47167,55.55556
47200,55.55556
47233,55.55556
47267,55.55556
47300,55.55556
47333,55.38462
47367,55.38462
47400,55.38462
47433,55.38462
47467,55.38462
47500,55.38462
47533,55.38462
47567,55.38462
47600,55.38462
47633,55.38462
47667,53.57143000000001
47700,53.57143000000001
47733,53.57143000000001
47767,53.57143000000001
47800,53.57143000000001
47833,53.57143000000001
47867,53.57143000000001
47900,53.57143000000001
47933,53.57143000000001
47967,53.57143000000001
48000,53.57143000000001
48033,53.57143000000001
48067,53.57143000000001
48100,53.57143000000001
48133,53.57143000000001
48167,53.57143000000001
48200,53.57143000000001
48233,55.38462
48267,55.10204
48300,55.10204
48333,55.10204
48367,55.38462
48400,55.38462
48433,55.38462
48467,55.38462
48500,55.38462
48533,55.38462
48567,54.21686999999999
48600,54.21686999999999
48633,54.21686999999999
48667,54.21686999999999
48700,54.21686999999999
48733,54.21686999999999
48767,54.21686999999999
48800,54.21686999999999
48833,54.21686999999999
48867,54.21686999999999
48900,54.21686999999999
48933,54.21686999999999
48967,54.21686999999999
49000,54.21686999999999
49033,54.21686999999999
49067,54.21686999999999
49100,54.21686999999999
49133,54.21686999999999
49167,54.21686999999999
49200,55.38462
49233,55.38462
49267,55.38462
49300,55.38462
49333,55.38462
49367,55.38462
49400,55.38462
49433,55.38462
49467,55.38462
49500,55.38462
49533,57.69231
49567,57.69231
49600,57.69231
49633,57.69231
49667,57.69231
49700,57.69231
49733,57.69231
49767,57.69231
49800,57.69231
49833,57.69231
49867,57.69231
49900,57.69231
49933,57.69231
49967,57.69231
50000,57.69231
50033,57.69231
50067,57.69231
50100,57.69231
50133,58.69565
50167,58.69565
50200,58.69565
50233,58.69565
50267,58.69565
50300,58.69565
50333,58.69565
50367,58.69565
50400,58.69565
50433,58.69565
50467,58.69565
50500,58.69565
50533,58.69565
50567,58.69565
50600,58.69565
50633,58.69565
50667,58.69565
50700,58.69565
50733,58.69565
50767,58.69565
50800,58.69565
50833,60.40268
50867,60.40268
50900,60.40268
50933,60.40268
50967,60.40268
51000,60.40268
51033,61.36364
51067,61.36364
51100,61.36364
51133,61.36364
51167,61.36364
51200,61.36364
51233,61.36364
51267,61.36364
51300,61.36364
51333,61.36364
51367,61.36364
51400,61.36364
51433,61.36364
51467,61.36364
51500,61.36364
51533,61.36364
51567,61.36364
51600,61.36364
51633,61.36364
51667,61.36364
51700,61.36364
51733,61.36364
51767,61.36364
51800,61.36364
51833,61.36364
51867,61.36364
51900,61.36364
51933,61.36364
51967,61.36364
52000,62.5
52033,62.06896999999999
52067,62.06896999999999
52100,62.06896999999999
52133,62.06896999999999
52167,62.06896999999999
52200,62.06896999999999
52233,62.06896999999999
52267,62.06896999999999
52300,62.06896999999999
52333,62.06896999999999
52367,62.06896999999999
52400,62.06896999999999
52433,62.06896999999999
52467,62.06896999999999
52500,62.06896999999999
52533,62.06896999999999
52567,62.06896999999999
52600,62.06896999999999
52633,62.06896999999999
52667,62.06896999999999
52700,62.06896999999999
52733,62.06896999999999
52767,62.06896999999999
52800,62.06896999999999
52833,62.06896999999999
52867,62.06896999999999
52900,62.06896999999999
52933,62.06896999999999
52967,62.06896999999999
53000,62.06896999999999
53033,61.76471
53067,63.15789
53100,63.15789
53133,63.15789
53167,63.15789
53200,63.15789
53233,63.15789
53267,63.15789
53300,63.52941
53333,63.52941
53367,63.52941
53400,63.52941
53433,63.52941
53467,63.52941
53500,63.52941
53533,63.52941
53567,63.52941
53600,63.52941
53633,63.52941
53667,63.52941
53700,63.52941
53733,63.52941
53767,63.52941
53800,63.52941
53833,63.52941
53867,63.52941
53900,63.52941
53933,63.52941
53967,63.31658
54000,63.31658
54033,63.31658
54067,63.31658
54100,63.31658
54133,63.31658
54167,62.7907
54200,62.7907
54233,62.7907
54267,62.7907
54300,62.7907
54333,62.7907
54367,62.7907
54400,62.7907
54433,62.7907
54467,62.7907
54500,62.7907
54533,62.7907
54567,62.7907
54600,62.7907
54633,62.7907
54667,62.7907
54700,62.7907
54733,62.7907
54767,62.7907
54800,62.7907
54833,63.63636
54867,63.63636
54900,63.63636
54933,63.63636
54967,63.63636
55000,63.63636
55033,63.63636
55067,63.905330000000006
55100,63.905330000000006
55133,63.905330000000006
55167,63.905330000000006
55200,63.905330000000006
55233,63.905330000000006
55267,63.905330000000006
55300,63.905330000000006
55333,63.905330000000006
55367,63.905330000000006
55400,63.905330000000006
55433,63.905330000000006
55467,63.905330000000006
55500,63.905330000000006
55533,63.905330000000006
55567,63.905330000000006
55600,63.905330000000006
55633,63.905330000000006
55667,63.905330000000006
55700,63.905330000000006
55733,63.905330000000006
55767,63.905330000000006
55800,63.905330000000006
55833,63.31658
55867,63.31658
55900,63.31658
55933,63.31658
55967,63.31658
56000,63.31658
56033,63.15789
56067,63.15789
56100,63.15789
56133,63.15789
56167,63.15789
56200,63.15789
56233,63.15789
56267,63.15789
56300,63.15789
56333,63.15789
56367,63.15789
56400,63.15789
56433,63.15789
56467,63.15789
56500,63.15789
56533,63.15789
56567,63.15789
56600,63.15789
56633,63.15789
56667,64.28571
56700,64.28571
56733,64.28571
56767,64.28571
56800,64.28571
56833,64.28571
56867,64.28571
56900,64.28571
56933,64.28571
56967,63.52941
57000,63.52941
57033,63.52941
57067,63.52941
57100,63.52941
57133,63.52941
57167,63.52941
57200,63.52941
57233,63.52941
57267,63.52941
57300,63.52941
57333,63.52941
57367,63.52941
57400,63.52941
57433,63.52941
57467,63.52941
57500,63.52941
57533,63.52941
57567,63.52941
57600,63.52941
57633,63.52941
57667,63.52941
57700,63.52941
57733,63.52941
57767,63.52941
57800,61.76471
57833,62.06896999999999
57867,62.06896999999999
57900,62.06896999999999
57933,62.06896999999999
57967,62.06896999999999
58000,62.06896999999999
58033,62.06896999999999
58067,62.06896999999999
58100,62.06896999999999
58133,62.06896999999999
58167,62.06896999999999
58200,62.06896999999999
58233,61.71429000000001
58267,61.71429000000001
58300,61.71429000000001
58333,61.71429000000001
58367,61.71429000000001
58400,61.71429000000001
58433,61.71429000000001
58467,61.71429000000001
58500,61.71429000000001
58533,61.71429000000001
58567,61.71429000000001
58600,61.71429000000001
58633,61.71429000000001
58667,61.71429000000001
58700,61.71429000000001
58733,61.71429000000001
58767,61.71429000000001
58800,61.71429000000001
58833,62.06896999999999
58867,62.06896999999999
58900,62.06896999999999
58933,61.01695
58967,61.01695
59000,61.01695
59033,61.01695
59067,61.01695
59100,61.01695
59133,61.01695
59167,61.01695
59200,61.01695
59233,60.67416
59267,60.67416
59300,60.67416
59333,60.67416
59367,60.67416
59400,60.67416
59433,60.67416
59467,60.67416
59500,60.67416
59533,60.67416
59567,60.67416
59600,60.67416
59633,60.67416
59667,60.67416
59700,60.67416
59733,60.67416
59767,60.67416
59800,60.67416
59833,60.40268
59867,60.40268
59900,60.40268
59933,60.40268
59967,60.40268
60000,60.40268
60033,59.34066
60067,59.34066
60100,59.34066
60133,59.34066
60167,59.34066
60200,59.34066
60233,59.34066
60267,59.34066
60300,59.34066
60333,59.34066
60367,59.34066
60400,59.34066
60433,59.34066
60467,59.34066
60500,59.34066
60533,59.34066
60567,59.34066
60600,59.34066
60633,59.34066
60667,59.34066
60700,59.34066
60733,59.34066
60767,59.34066
60800,57.69231
60833,57.69231
60867,57.69231
60900,57.69231
60933,57.69231
60967,58.69565
61000,58.69565
61033,58.69565
61067,58.69565
61100,58.69565
61133,58.69565
61167,58.69565
61200,58.69565
61233,58.69565
61267,58.69565
61300,58.69565
61333,58.69565
61367,58.69565
61400,58.69565
61433,58.69565
61467,58.69565
61500,58.69565
61533,58.69565
61567,58.69565
61600,58.69565
61633,58.69565
61667,58.44156
61700,58.44156
61733,58.44156
61767,58.44156
61800,58.44156
61833,58.44156
61867,58.44156
61900,58.44156
61933,58.44156
61967,58.44156
62000,58.37838000000001
62033,58.37838000000001
62067,58.37838000000001
62100,58.37838000000001
62133,58.37838000000001
62167,58.37838000000001
62200,58.37838000000001
62233,58.37838000000001
62267,58.37838000000001
62300,58.37838000000001
62333,58.37838000000001
62367,58.37838000000001
62400,58.37838000000001
62433,58.37838000000001
62467,58.37838000000001
62500,58.37838000000001
62533,58.37838000000001
62567,58.37838000000001
62600,58.37838000000001
62633,58.37838000000001
62667,56.25
62700,56.25
62733,56.25
62767,56.25
62800,56.25
62833,56.25
62867,56.25
62900,57.75401
62933,57.75401
62967,57.75401
63000,57.75401
63033,57.75401
63067,57.75401
63100,57.75401
63133,57.75401
63167,57.75401
63200,57.75401
63233,57.75401
63267,57.75401
63300,57.75401
63333,57.75401
63367,57.75401
63400,57.75401
63433,57.75401
63467,57.75401
63500,59.21053000000001
63533,59.21053000000001
63567,59.60265
63600,59.60265
63633,59.60265
63667,59.60265
63700,59.60265
63733,59.60265
63767,59.60265
63800,60.67416
63833,60.67416
63867,60.67416
63900,60.33519
63933,60.33519
63967,60.33519
64000,60.33519
64033,60.33519
64067,60.33519
64100,60.33519
64133,60.33519
64167,60.33519
64200,60.33519
64233,60.33519
64267,60.33519
64300,60.33519
64333,60.33519
64367,60.33519
64400,60.33519
64433,60.33519
64467,60.33519
64500,60.33519
64533,60.33519
64567,60.67416
64600,60.67416
64633,60.67416
64667,62.06896999999999
64700,62.42775
64733,62.42775
64767,62.42775
64800,62.42775
64833,62.42775
64867,62.42775
64900,62.42775
64933,62.42775
64967,62.42775
65000,62.42775
65033,62.42775
65067,62.42775
65100,62.42775
65133,62.42775
65167,62.42775
65200,62.42775
65233,62.42775
65267,62.42775
65300,62.42775
65333,62.42775
65367,62.42775
65400,62.42775
65433,62.42775
65467,62.42775
65500,62.42775
65533,62.42775
65567,62.42775
65600,62.42775
65633,62.42775
65667,62.42775
65700,62.42775
65733,62.42775
65767,64.28571
65800,64.67066
65833,64.67066
65867,64.67066
65900,64.67066
65933,65.06024000000001
65967,65.06024000000001
66000,65.06024000000001
66033,65.06024000000001
66067,65.06024000000001
66100,65.06024000000001
66133,65.06024000000001
66167,65.06024000000001
66200,65.06024000000001
66233,65.06024000000001
66267,65.06024000000001
66300,65.06024000000001
66333,65.06024000000001
66367,65.06024000000001
66400,65.06024000000001
66433,65.06024000000001
66467,65.06024000000001
66500,65.06024000000001
66533,64.61539
66567,64.28571
66600,64.61539
66633,64.61539
66667,64.61539
66700,64.61539
66733,64.61539
66767,65.06024000000001
66800,65.06024000000001
66833,65.06024000000001
66867,64.67066
66900,64.67066
66933,64.67066
66967,64.67066
67000,64.67066
67033,64.67066
67067,64.67066
67100,64.67066
67133,64.67066
67167,64.67066
67200,64.67066
67233,64.67066
67267,66.66666
67300,66.66666
67333,66.66666
67367,66.66666
67400,66.66666
67433,66.66666
67467,66.66666
67500,66.66666
67533,66.66666
67567,66.66666
67600,66.66666
67633,66.66666
67667,66.66666
67700,66.66666
67733,66.66666
67767,66.66666
67800,68.35443000000001
67833,68.35443000000001
67867,68.35443000000001
67900,68.35443000000001
67933,68.35443000000001
67967,68.35443000000001
68000,68.35443000000001
68033,68.35443000000001
68067,68.35443000000001
68100,68.35443000000001
68133,68.35443000000001
68167,68.35443000000001
68200,68.35443000000001
68233,68.35443000000001
68267,68.35443000000001
68300,68.35443000000001
68333,68.35443000000001
68367,68.35443000000001
68400,68.35443000000001
68433,68.35443000000001
68467,67.37968000000001
68500,67.37968000000001
68533,67.37968000000001
68567,67.37968000000001
68600,67.37968000000001
68633,67.37968000000001
68667,67.37968000000001
68700,67.37968000000001
68733,67.37968000000001
68767,67.37968000000001
68800,67.37968000000001
68833,67.08074
68867,67.08074
68900,67.08074
68933,67.08074
68967,67.08074
69000,67.08074
69033,67.08074
69067,67.08074
69100,67.08074
69133,67.08074
69167,66.66666
69200,66.66666
69233,66.66666
69267,66.66666
69300,66.66666
69333,66.66666
69367,66.66666
69400,66.66666
69433,66.66666
69467,66.66666
69500,66.66666
69533,66.66666
69567,66.66666
69600,66.66666
69633,66.66666
69667,66.66666
69700,66.66666
69733,66.66666
69767,66.66666
69800,66.66666
69833,66.66666
69867,66.66666
69900,66.66666
69933,66.66666
69967,66.66666
70000,66.66666
70033,66.66666
70067,66.66666
70100,66.66666
70133,66.66666
70167,66.66666
70200,65.28497
70233,65.28497
70267,65.28497
70300,65.28497
70333,65.28497
70367,65.28497
70400,65.28497
70433,65.28497
70467,65.28497
70500,65.28497
70533,65.28497
70567,65.28497
70600,65.625
70633,65.45454000000001
70667,65.45454000000001
70700,65.45454000000001
70733,65.45454000000001
70767,65.45454000000001
70800,65.45454000000001
70833,65.45454000000001
70867,65.45454000000001
70900,65.45454000000001
70933,65.45454000000001
70967,65.45454000000001
71000,65.45454000000001
71033,66.31579
71067,65.96859
71100,66.31579
71133,66.31579
71167,66.31579
71200,66.31579
71233,65.96859
71267,65.96859
71300,65.96859
71333,65.96859
71367,65.96859
71400,65.96859
71433,66.31579
71467,66.31579
71500,66.31579
71533,65.85365999999999
71567,65.85365999999999
71600,65.85365999999999
71633,65.85365999999999
71667,65.85365999999999
71700,65.85365999999999
71733,65.85365999999999
71767,65.85365999999999
71800,65.85365999999999
71833,65.85365999999999
71867,65.85365999999999
71900,66.31579
71933,66.31579
71967,66.31579
72000,66.31579
72033,66.31579
72067,66.31579
72100,66.31579
72133,66.31579
72167,66.31579
72200,66.31579
72233,66.31579
72267,66.31579
72300,66.31579
72333,66.31579
72367,66.31579
72400,67.08074
72433,67.08074
72467,67.08074
72500,67.08074
72533,67.08074
72567,67.08074
72600,67.08074
72633,67.08074
72667,67.08074
72700,67.08074
72733,67.08074
72767,67.08074
72800,67.08074
72833,67.08074
72867,66.31579
72900,66.31579
72933,66.31579
72967,66.31579
73000,66.31579
73033,66.31579
73067,66.31579
73100,66.31579
73133,66.31579
73167,66.31579
73200,66.31579
73233,66.31579
73267,66.31579
73300,66.31579
73333,66.31579
73367,64.28571
73400,64.28571
73433,64.28571
73467,64.28571
73500,67.37968000000001
73533,67.37968000000001
73567,67.37968000000001
73600,67.37968000000001
73633,67.37968000000001
73667,67.37968000000001
73700,67.37968000000001
73733,67.37968000000001
73767,67.37968000000001
73800,67.37968000000001
73833,67.37968000000001
73867,67.37968000000001
73900,67.37968000000001
73933,67.37968000000001
73967,67.37968000000001
74000,67.37968000000001
74033,67.37968000000001
74067,67.37968000000001
74100,67.92453
74133,67.92453
74167,67.92453
74200,67.92453
74233,67.92453
74267,67.92453
74300,67.92453
74333,67.92453
74367,68.10811
74400,68.10811
74433,68.10811
74467,68.10811
74500,68.10811
74533,68.10811
74567,68.10811
74600,68.10811
74633,68.10811
74667,68.10811
74700,68.10811
74733,68.10811
74767,68.10811
74800,68.10811
74833,68.10811
74867,68.10811
74900,68.10811
74933,68.10811
74967,68.10811
75000,68.10811
75033,68.78981
75067,68.78981
75100,68.78981
75133,68.78981
75167,68.78981
75200,68.78981
75233,68.78981
75267,68.78981
75300,68.78981
75333,68.78981
75367,68.78981
75400,68.78981
75433,68.78981
75467,68.78981
75500,68.78981
75533,68.78981
75567,68.78981
75600,68.78981
75633,68.78981
75667,68.78981
75700,64.28571
75733,64.28571
75767,64.28571
75800,64.28571
75833,64.28571
75867,64.61539
75900,64.61539
75933,64.61539
75967,64.61539
76000,65.85365999999999
76033,65.85365999999999
76067,65.45454000000001
76100,65.45454000000001
76133,65.45454000000001
76167,65.45454000000001
76200,65.45454000000001
76233,65.45454000000001
76267,65.45454000000001
76300,65.45454000000001
76333,65.45454000000001
76367,65.85365999999999
76400,65.85365999999999
76433,65.85365999999999
76467,65.85365999999999
76500,65.85365999999999
76533,65.85365999999999
76567,65.85365999999999
76600,65.85365999999999
76633,65.85365999999999
76667,65.85365999999999
76700,64.61539
76733,64.61539
76767,64.61539
76800,64.61539
76833,64.61539
76867,64.61539
76900,64.61539
76933,64.61539
76967,64.61539
77000,64.61539
77033,63.52941
77067,63.52941
77100,63.52941
77133,63.52941
77167,63.52941
77200,63.52941
77233,63.52941
77267,63.52941
77300,63.52941
77333,63.52941
77367,63.52941
77400,63.52941
77433,63.52941
77467,63.52941
77500,63.52941
77533,63.52941
77567,63.52941
77600,63.52941
77633,63.52941
77667,63.52941
77700,63.52941
77733,63.52941
77767,62.37624
77800,62.37624
77833,53.73134
77867,51.42857
77900,51.42857
77933,51.42857
77967,51.42857
78000,51.42857
78033,51.42857
78067,51.42857
78100,51.42857
78133,51.42857
78167,51.42857
78200,51.42857
78233,51.42857
78267,51.42857
78300,51.42857
78333,51.42857
78367,51.42857
78400,51.42857
78433,51.42857
78467,51.42857
78500,51.42857
78533,51.42857
78567,51.42857
78600,51.42857
78633,55.10204
78667,55.10204
78700,55.10204
78733,53.89222
78767,53.89222
78800,53.89222
78833,53.89222
78867,53.89222
78900,53.89222
78933,53.89222
78967,53.89222
79000,53.89222
79033,53.89222
79067,53.89222
79100,53.89222
79133,53.57143000000001
79167,53.57143000000001
79200,53.57143000000001
79233,53.57143000000001
79267,53.57143000000001
79300,53.57143000000001
79333,53.57143000000001
79367,53.57143000000001
79400,53.57143000000001
79433,53.57143000000001
79467,53.57143000000001
79500,53.57143000000001
79533,53.57143000000001
79567,53.57143000000001
79600,53.57143000000001
79633,53.57143000000001
79667,53.57143000000001
79700,56.60378000000001
79733,56.60378000000001
79767,56.60378000000001
79800,56.60378000000001
79833,56.60378000000001
79867,56.60378000000001
79900,56.60378000000001
79933,56.60378000000001
79967,56.60378000000001
80000,56.60378000000001
80033,56.60378000000001
80067,56.60378000000001
80100,56.60378000000001
80133,56.60378000000001
80167,56.60378000000001
80200,56.60378000000001
80233,56.60378000000001
80267,56.25
80300,56.25
80333,56.25
80367,56.25
80400,56.25
80433,56.25
80467,56.25
80500,56.25
80533,56.25
80567,56.25
80600,56.25
80633,56.25
80667,56.25
80700,57.14286
80733,57.14286
80767,57.14286
80800,57.14286
80833,57.14286
80867,57.14286
80900,57.14286
80933,57.14286
80967,57.14286
81000,57.14286
81033,57.14286
81067,57.14286
81100,57.14286
81133,57.14286
81167,57.14286
81200,57.14286
81233,59.60265
81267,59.60265
81300,59.60265
81333,59.60265
81367,59.60265
81400,59.60265
81433,59.60265
81467,59.60265
81500,59.60265
81533,59.60265
81567,59.60265
81600,59.60265
81633,59.60265
81667,59.60265
81700,59.60265
81733,59.60265
81767,63.15789
81800,52.63158000000001
81833,52.94118
81867,52.94118
81900,52.94118
81933,52.94118
81967,52.94118
82000,52.94118
82033,52.94118
82067,52.94118
82100,52.94118
82133,52.94118
82167,53.25444
82200,53.25444
82233,53.25444
82267,53.25444
82300,53.25444
82333,53.25444
82367,53.73134
82400,53.73134
82433,53.73134
82467,53.73134
82500,52.94118
82533,52.94118
82567,52.94118
82600,52.94118
82633,52.94118
82667,52.94118
82700,52.94118
82733,52.94118
82767,52.94118
82800,52.94118
82833,52.94118
82867,52.94118
82900,52.94118
82933,52.94118
82967,52.94118
83000,52.94118
83033,52.94118
83067,52.94118
83100,52.94118
83133,52.94118
83167,52.94118
83200,52.94118
83233,52.94118
83267,52.94118
83300,52.94118
83333,52.94118
83367,52.94118
83400,52.94118
83433,52.94118
83467,52.94118
83500,52.94118
83533,51.79856
83567,51.79856
83600,51.79856
83633,51.79856
83667,51.79856
83700,51.79856
83733,51.79856
83767,51.79856
83800,51.79856
83833,51.79856
83867,51.79856
83900,51.79856
83933,51.79856
83967,48.12834
84000,48.12834
84033,48.12834
84067,48.12834
84100,48.12834
84133,48.12834
84167,48.12834
84200,48.12834
84233,48.12834
84267,48.12834
84300,48.12834
84333,48.12834
84367,48.12834
84400,48.12834
84433,48.12834
84467,48.12834
84500,48.12834
84533,48.12834
84567,43.37349
84600,43.37349
84633,43.37349
84667,43.37349
84700,43.37349
84733,43.37349
84767,47.36842
84800,47.36842
84833,47.36842
84867,47.36842
84900,47.36842
84933,47.36842
84967,47.36842
85000,47.36842
85033,47.36842
85067,47.36842
85100,47.36842
85133,47.36842
85167,47.36842
85200,47.36842
85233,47.12042
85267,47.36842
85300,47.36842
85333,47.36842
85367,47.36842
85400,47.36842
85433,47.36842
85467,47.36842
85500,47.36842
85533,47.36842
85567,47.36842
85600,47.36842
85633,47.36842
85667,47.36842
85700,47.36842
85733,47.36842
85767,47.36842
85800,49.45055
85833,49.45055
85867,49.45055
85900,49.18033
85933,49.18033
85967,49.18033
86000,49.18033
86033,49.18033
86067,49.18033
86100,49.18033
86133,49.18033
86167,49.18033
86200,49.18033
86233,49.18033
86267,49.18033
86300,49.18033
86333,49.18033
86367,49.18033
86400,49.18033
86433,49.18033
86467,49.18033
86500,49.18033
86533,49.18033
86567,52.55474
86600,52.55474
86633,52.55474
86667,52.55474
86700,52.55474
86733,52.55474
86767,52.94118
86800,52.94118
86833,53.89222
86867,53.89222
86900,53.89222
86933,54.21686999999999
86967,54.21686999999999
87000,54.21686999999999
87033,54.21686999999999
87067,54.21686999999999
87100,54.21686999999999
87133,54.21686999999999
87167,54.54546
87200,54.54546
87233,54.54546
87267,54.54546
87300,54.54546
87333,54.54546
87367,54.54546
87400,54.54546
87433,54.54546
87467,54.54546
87500,58.06452
87533,58.06452
87567,58.06452
87600,58.06452
87633,67.74194
87667,67.74194
87700,67.74194
87733,67.74194
87767,67.74194
87800,77.83784
87833,77.83784
87867,77.83784
87900,77.83784
87933,77.83784
87967,77.83784
88000,77.83784
88033,77.83784
88067,77.83784
88100,80.59702
88133,80.59702
88167,84.21053
88200,83.72093000000002
88233,83.72093000000002
88267,83.72093000000002
88300,83.72093000000002
88333,83.72093000000002
88367,83.72093000000002
88400,83.72093000000002
88433,83.72093000000002
88467,83.72093000000002
88500,83.72093000000002
88533,83.72093000000002
88567,83.72093000000002
88600,85.71429
88633,85.26316
88667,85.26316
88700,85.26316
88733,85.26316
88767,85.26316
88800,85.26316
88833,85.26316
88867,85.26316
88900,85.26316
88933,85.71429
88967,85.71429
89000,85.71429
89033,85.71429
89067,85.71429
89100,85.71429
89133,90.56604
89167,90.56604
89200,90.56604
89233,90.56604
89267,79.24529
89300,79.24529
89333,79.24529
89367,79.24529
89400,79.24529
89433,79.24529
89467,79.24529
89500,77.41936
89533,77.41936
89567,77.41936
89600,77.41936
89633,77.41936
89667,77.41936
89700,77.41936
89733,77.41936
89767,77.41936
89800,77.41936
89833,77.41936
89867,77.41936
89900,77.41936
89933,77.41936
89967,77.41936
90000,77.41936
90033,77.41936
90067,77.41936
90100,77.41936
90133,75.0
90167,75.0
90200,75.0
90233,75.0
90267,75.0
90300,75.0
90333,64.28571
90367,64.28571
90400,64.28571
90433,64.28571
90467,64.28571
90500,64.28571
90533,63.31658
90567,64.28571
90600,62.68657
90633,62.68657
90667,63.0
90700,63.0
90733,62.7907
90767,62.7907
90800,62.7907
90833,62.7907
90867,62.7907
90900,63.15789
90933,63.15789
90967,63.15789
91000,63.15789
91033,63.15789
91067,63.15789
91100,63.15789
91133,63.15789
91167,63.15789
91200,63.15789
91233,63.15789
91267,63.15789
91300,63.15789
91333,63.15789
91367,63.15789
91400,63.15789
91433,63.15789
91467,63.15789
91500,63.15789
91533,63.15789
91567,63.15789
91600,63.15789
91633,63.15789
91667,61.22449
91700,61.36364
91733,61.36364
91767,61.36364
91800,61.36364
91833,61.36364
91867,62.06896999999999
91900,62.06896999999999
91933,62.06896999999999
91967,62.06896999999999
92000,62.06896999999999
92033,62.06896999999999
92067,62.06896999999999
92100,62.06896999999999
92133,62.06896999999999
92167,62.06896999999999
92200,62.06896999999999
92233,62.42775
92267,62.42775
92300,62.42775
92333,62.42775
92367,62.42775
92400,62.42775
92433,62.42775
92467,62.42775
92500,64.7482
92533,62.7907
92567,62.7907
92600,62.7907
92633,62.7907
92667,62.7907
92700,62.7907
92733,62.7907
92767,62.7907
92800,62.7907
92833,62.7907
92867,62.7907
92900,62.7907
92933,62.7907
92967,62.7907
93000,62.7907
93033,62.7907
93067,62.7907
93100,62.7907
93133,62.7907
93167,62.7907
93200,62.7907
93233,62.7907
93267,62.7907
93300,62.7907
93333,62.7907
93367,62.7907
93400,62.7907
93433,62.7907
93467,62.7907
93500,62.68657
93533,62.68657
93567,62.68657
93600,53.73134
93633,52.32558
93667,52.32558
93700,52.32558
93733,52.32558
93767,52.32558
93800,52.32558
93833,52.32558
93867,52.32558
93900,52.32558
93933,52.32558
93967,52.32558
94000,52.32558
94033,52.32558
94067,52.32558
94100,52.32558
94133,52.32558
94167,52.32558
94200,52.32558
94233,55.6701
94267,55.6701
94300,55.6701
94333,55.6701
94367,55.6701
94400,55.6701
94433,55.6701
94467,55.6701
94500,55.6701
94533,55.6701
94567,55.6701
94600,52.63158000000001
94633,52.63158000000001
94667,52.63158000000001
94700,52.63158000000001
94733,52.63158000000001
94767,52.63158000000001
94800,52.63158000000001
94833,52.63158000000001
94867,52.63158000000001
94900,52.63158000000001
94933,52.63158000000001
94967,52.63158000000001
95000,52.63158000000001
95033,52.63158000000001
95067,52.63158000000001
95100,52.63158000000001
95133,52.63158000000001
95167,52.63158000000001
95200,52.63158000000001
95233,53.73134
95267,52.63158000000001
95300,52.63158000000001
95333,52.63158000000001
95367,51.13636
95400,50.70422
95433,50.5618
95467,40.44944
95500,40.44944
95533,40.44944
95567,40.44944
95600,40.44944
95633,40.44944
95667,40.44944
95700,40.44944
95733,40.44944
95767,40.44944
95800,40.44944
95833,40.44944
95867,40.44944
95900,40.44944
95933,40.44944
95967,40.44944
96000,40.44944
96033,40.44944
96067,40.44944
96100,40.44944
96133,40.44944
96167,40.44944
96200,40.44944
96233,40.44944
96267,40.44944
96300,40.44944
96333,41.86047
96367,41.86047
96400,41.86047
96433,41.86047
96467,41.86047
96500,41.86047
96533,41.86047
96567,41.86047
96600,42.10526
96633,42.10526
96667,42.10526
96700,42.10526
96733,42.10526
96767,42.10526
96800,42.10526
96833,42.10526
96867,42.10526
96900,42.10526
96933,42.10526
96967,42.10526
97000,42.10526
97033,42.10526
97067,42.10526
97100,42.10526
97133,42.10526
97167,45.68528
97200,45.68528
97233,45.68528
97267,45.68528
97300,45.68528
97333,45.68528
97367,45.68528
97400,45.68528
97433,52.17391
97467,52.17391
97500,52.17391
97533,52.17391
97567,52.17391
97600,52.17391
97633,52.17391
97667,52.17391
97700,52.17391
97733,52.17391
97767,52.17391
97800,52.17391
97833,52.55474
97867,52.55474
97900,52.55474
97933,52.55474
97967,52.55474
98000,52.55474
98033,52.55474
98067,52.55474
98100,52.55474
98133,52.55474
98167,52.55474
98200,53.57143000000001
98233,53.57143000000001
98267,53.57143000000001
98300,53.57143000000001
98333,53.57143000000001
98367,53.57143000000001
98400,53.57143000000001
98433,53.57143000000001
98467,53.57143000000001
98500,53.57143000000001
98533,53.57143000000001
98567,53.57143000000001
98600,53.57143000000001
98633,53.57143000000001
98667,53.57143000000001
98700,53.57143000000001
98733,53.57143000000001
98767,53.57143000000001
98800,53.57143000000001
98833,53.57143000000001
98867,53.57143000000001
98900,53.57143000000001
98933,53.57143000000001
98967,53.57143000000001
99000,53.57143000000001
99033,53.57143000000001
99067,53.57143000000001
99100,53.57143000000001
99133,53.57143000000001
99167,53.57143000000001
99200,54.54546
99233,54.54546
99267,54.54546
99300,54.54546
99333,54.54546
99367,54.54546
99400,54.54546
99433,53.25444
99467,53.25444
99500,53.25444
99533,53.25444
99567,53.25444
99600,53.25444
99633,53.25444
99667,53.25444
99700,53.25444
99733,53.25444
99767,53.25444
99800,53.25444
99833,53.25444
99867,57.44681
99900,57.44681
99933,57.44681
99967,57.44681
100000,57.44681
100033,57.44681
100067,57.44681
100100,57.44681
100133,57.44681
100167,57.44681
100200,57.44681
100233,57.44681
100267,57.44681
100300,57.44681
100333,57.44681
100367,57.44681
100400,68.70229
100433,68.70229
100467,68.70229
100500,68.70229
100533,68.70229
100567,68.70229
100600,68.70229
100633,68.70229
100667,68.70229
100700,68.78981
100733,68.35443000000001
100767,68.35443000000001
100800,68.35443000000001
100833,68.35443000000001
100867,68.35443000000001
100900,68.35443000000001
100933,68.35443000000001
100967,68.35443000000001
101000,68.35443000000001
101033,68.35443000000001
101067,68.35443000000001
101100,68.35443000000001
101133,68.35443000000001
101167,68.35443000000001
101200,68.35443000000001
101233,68.35443000000001
101267,68.35443000000001
101300,68.35443000000001
101333,68.35443000000001
101367,68.35443000000001
101400,68.35443000000001
101433,68.35443000000001
101467,68.35443000000001
101500,68.35443000000001
101533,68.35443000000001
101567,68.35443000000001
101600,68.35443000000001
101633,68.35443000000001
101667,67.74194
101700,67.74194
101733,67.74194
101767,67.74194
101800,67.74194
101833,67.74194
101867,67.74194
101900,67.37968000000001
101933,67.37968000000001
101967,67.37968000000001
102000,67.37968000000001
102033,67.37968000000001
102067,67.37968000000001
102100,67.37968000000001
102133,67.37968000000001
102167,67.37968000000001
102200,67.37968000000001
102233,67.37968000000001
102267,67.37968000000001
102300,66.66666
102333,66.66666
102367,66.25766999999999
102400,66.25766999999999
102433,66.25766999999999
102467,66.25766999999999
102500,66.25766999999999
102533,66.25766999999999
102567,66.25766999999999
102600,66.25766999999999
102633,66.25766999999999
102667,66.25766999999999
102700,66.25766999999999
102733,66.25766999999999
102767,66.25766999999999
102800,66.25766999999999
102833,66.25766999999999
102867,64.28571
102900,64.28571
102933,64.28571
102967,64.28571
103000,64.28571
103033,64.28571
103067,64.28571
103100,64.28571
103133,63.52941
103167,63.52941
103200,63.52941
103233,63.52941
103267,63.52941
103300,63.52941
103333,63.52941
103367,63.52941
103400,63.52941
103433,63.52941
103467,63.52941
103500,63.52941
103533,63.52941
103567,63.52941
103600,63.52941
103633,63.52941
103667,63.52941
103700,63.52941
103733,63.95939
103767,63.95939
103800,63.95939
103833,63.95939
103867,63.95939
103900,63.95939
103933,63.95939
103967,63.95939
104000,65.06024000000001
104033,65.06024000000001
104067,65.06024000000001
104100,65.06024000000001
104133,65.06024000000001
104167,65.06024000000001
104200,65.06024000000001
104233,65.06024000000001
104267,65.06024000000001
104300,65.06024000000001
104333,65.06024000000001
104367,65.06024000000001
104400,65.06024000000001
104433,65.06024000000001
104467,65.06024000000001
104500,65.06024000000001
104533,65.06024000000001
104567,65.06024000000001
104600,65.06024000000001
104633,65.28497
104667,64.94846
104700,64.94846
104733,64.94846
104767,65.28497
104800,65.28497
104833,65.28497
104867,65.28497
104900,65.28497
104933,65.28497
104967,65.28497
105000,65.28497
105033,66.25766999999999
105067,66.25766999999999
105100,66.25766999999999
105133,66.25766999999999
105167,66.25766999999999
105200,66.25766999999999
105233,66.25766999999999
105267,66.25766999999999
105300,66.25766999999999
105333,66.25766999999999
105367,66.25766999999999
105400,66.25766999999999
105433,66.25766999999999
105467,66.25766999999999
105500,66.25766999999999
105533,66.25766999999999
105567,66.25766999999999
105600,65.625
105633,65.625
105667,65.625
105700,65.625
105733,65.625
105767,65.625
105800,65.625
105833,65.625
105867,65.625
105900,65.625
105933,65.625
105967,65.625
106000,65.625
106033,62.42775
106067,62.42775
106100,62.42775
106133,62.42775
106167,62.42775
106200,62.42775
106233,62.42775
106267,62.42775
106300,62.42775
106333,62.42775
106367,62.42775
106400,62.42775
106433,62.42775
106467,62.42775
106500,62.42775
106533,62.42775
106567,62.37624
106600,62.37624
106633,62.37624
106667,62.06896999999999
106700,62.06896999999999
106733,62.06896999999999
106767,62.06896999999999
106800,62.06896999999999
106833,62.06896999999999
106867,62.06896999999999
106900,62.06896999999999
106933,62.06896999999999
106967,62.06896999999999
107000,62.06896999999999
107033,62.06896999999999
107067,62.06896999999999
107100,62.06896999999999
107133,62.06896999999999
107167,62.06896999999999
107200,62.06896999999999
107233,62.06896999999999
107267,62.06896999999999
107300,62.06896999999999
107333,62.06896999999999
107367,62.06896999999999
107400,62.06896999999999
107433,62.06896999999999
107467,62.06896999999999
107500,62.06896999999999
107533,62.06896999999999
107567,62.06896999999999
107600,62.06896999999999
107633,62.06896999999999
107667,62.06896999999999
107700,62.06896999999999
107733,62.06896999999999
107767,62.06896999999999
107800,62.06896999999999
107833,62.06896999999999
107867,62.06896999999999
107900,62.42775
107933,62.42775
107967,62.42775
108000,62.42775
108033,62.42775
108067,62.42775
108100,62.42775
108133,62.42775
108167,62.42775
108200,62.42775
108233,62.42775
108267,62.42775
108300,62.42775
108333,63.63636
108367,63.63636
108400,63.63636
108433,63.63636
108467,63.63636
108500,63.63636
108533,63.63636
108567,65.06024000000001
108600,65.06024000000001
108633,65.06024000000001
108667,65.06024000000001
108700,65.06024000000001
108733,65.06024000000001
108767,65.06024000000001
108800,64.67066
108833,64.67066
108867,64.67066
108900,64.67066
108933,64.67066
108967,64.67066
109000,64.67066
109033,64.67066
109067,64.67066
109100,64.67066
109133,64.67066
109167,65.625
109200,65.625
109233,65.625
109267,65.625
109300,65.625
109333,65.625
109367,65.625
109400,65.625
109433,65.625
109467,65.625
109500,65.625
109533,65.625
109567,65.625
109600,65.85365999999999
109633,65.85365999999999
109667,65.85365999999999
109700,65.85365999999999
109733,65.85365999999999
109767,65.85365999999999
109800,65.85365999999999
109833,65.85365999999999
109867,65.85365999999999
109900,65.85365999999999
109933,65.85365999999999
109967,65.85365999999999
110000,65.85365999999999
110033,65.85365999999999
110067,65.85365999999999
110100,65.85365999999999
110133,65.45454000000001
110167,65.45454000000001
110200,65.45454000000001
110233,65.45454000000001
110267,65.45454000000001
110300,65.45454000000001
110333,65.45454000000001
110367,65.45454000000001
110400,65.45454000000001
110433,65.45454000000001
110467,65.45454000000001
110500,65.45454000000001
110533,65.69343
110567,65.69343
110600,63.52941
110633,63.52941
110667,63.52941
110700,63.52941
110733,63.52941
110767,63.52941
110800,63.52941
110833,63.52941
110867,63.52941
110900,63.52941
110933,63.52941
110967,63.52941
111000,63.52941
111033,63.52941
111067,63.52941
111100,63.52941
111133,63.52941
111167,63.52941
111200,63.52941
111233,63.52941
111267,63.31658
111300,63.52941
111333,63.0
111367,63.0
111400,63.0
111433,63.0
111467,63.15789
111500,63.15789
111533,63.15789
111567,63.15789
111600,63.15789
111633,63.15789
111667,63.15789
111700,63.15789
111733,63.15789
111767,63.15789
111800,63.15789
111833,63.15789
111867,63.15789
111900,63.15789
111933,63.15789
111967,63.15789
112000,63.15789
112033,63.15789
112067,63.15789
112100,63.15789
112133,63.15789
112167,63.15789
112200,63.15789
112233,63.31658
112267,63.31658
112300,63.31658
112333,63.31658
112367,63.31658
112400,63.31658
112433,63.52941
112467,63.52941
112500,63.52941
112533,63.52941
112567,63.52941
112600,63.52941
112633,63.52941
112667,63.52941
112700,63.52941
112733,63.52941
112767,63.52941
112800,63.52941
112833,63.52941
112867,63.52941
112900,63.52941
112933,63.52941
112967,63.52941
113000,63.52941
113033,63.52941
113067,63.52941
113100,63.52941
113133,63.52941
113167,63.63636
113200,63.63636
113233,63.63636
113267,63.63636
113300,63.63636
113333,63.63636
113367,63.63636
113400,63.905330000000006
113433,63.905330000000006
113467,63.905330000000006
113500,63.905330000000006
113533,63.905330000000006
113567,63.905330000000006
113600,63.905330000000006
113633,63.905330000000006
113667,63.905330000000006
113700,63.905330000000006
113733,63.905330000000006
113767,63.905330000000006
113800,63.905330000000006
113833,63.905330000000006
113867,63.905330000000006
113900,63.905330000000006
113933,63.905330000000006
113967,63.905330000000006
114000,63.905330000000006
114033,63.905330000000006
114067,64.28571
114100,64.28571
114133,64.28571
114167,64.28571
114200,64.28571
114233,64.28571
114267,64.28571
114300,64.28571
114333,64.28571
114367,62.7907
114400,62.7907
114433,62.7907
114467,62.7907
114500,62.7907
114533,62.7907
114567,62.7907
114600,62.7907
114633,62.7907
114667,62.7907
114700,62.7907
114733,62.7907
114767,62.7907
114800,62.7907
114833,62.7907
114867,62.7907
114900,62.7907
114933,62.7907
114967,62.7907
115000,62.7907
115033,62.7907
115067,62.7907
115100,62.7907
115133,62.7907
115167,61.64384
115200,61.64384
115233,61.64384
115267,61.64384
115300,61.64384
115333,61.64384
115367,61.64384
115400,61.64384
115433,61.64384
115467,61.64384
115500,61.64384
115533,61.64384
115567,56.5445
115600,56.5445
115633,56.5445
115667,56.5445
115700,56.5445
115733,56.5445
115767,56.5445
115800,56.5445
115833,56.5445
115867,56.5445
115900,56.5445
115933,56.5445
115967,56.5445
116000,56.5445
116033,56.96202
116067,56.96202
116100,56.96202
116133,56.96202
116167,56.96202
116200,56.96202
116233,56.96202
116267,57.69231
116300,57.69231
116333,57.69231
116367,57.69231
116400,57.69231
116433,57.69231
116467,57.69231
116500,56.96202
116533,56.96202
116567,56.96202
116600,56.96202
116633,56.96202
116667,56.96202
116700,56.96202
116733,56.96202
116767,56.96202
116800,56.96202
116833,56.96202
116867,56.96202
116900,56.96202
116933,56.96202
116967,56.96202
117000,56.96202
117033,56.96202
117067,56.96202
117100,52.94118
117133,51.72414000000001
117167,51.72414000000001
117200,51.72414000000001
117233,51.72414000000001
117267,51.72414000000001
117300,51.72414000000001
117333,51.72414000000001
117367,51.72414000000001
117400,51.72414000000001
117433,51.72414000000001
117467,51.72414000000001
117500,51.72414000000001
117533,52.02312
117567,52.02312
117600,52.02312
117633,52.02312
117667,52.02312
117700,52.02312
117733,52.02312
117767,52.02312
117800,52.02312
117833,52.02312
117867,52.02312
117900,52.02312
117933,52.02312
117967,54.0
118000,54.0
118033,54.0
118067,54.0
118100,54.0
118133,52.32558
118167,52.32558
118200,52.32558
118233,52.32558
118267,52.32558
118300,52.32558
118333,52.32558
118367,52.32558
118400,52.32558
118433,52.32558
118467,52.32558
118500,52.32558
118533,52.32558
118567,52.32558
118600,52.32558
118633,52.32558
118667,52.32558
118700,52.32558
118733,52.32558
118767,52.32558
118800,52.32558
118833,52.32558
118867,52.32558
118900,52.32558
118933,52.32558
118967,52.32558
119000,53.20197
119033,53.20197
119067,51.13636
119100,51.13636
119133,51.13636
119167,50.84746
119200,50.84746
119233,50.84746
119267,50.84746
119300,50.84746
119333,50.84746
119367,50.84746
119400,50.84746
119433,50.84746
119467,50.84746
119500,50.84746
119533,50.84746
119567,50.84746
119600,50.84746
119633,50.84746
119667,50.84746
119700,50.84746
119733,50.84746
119767,50.84746
119800,50.84746
119833,50.84746
119867,50.84746
119900,50.84746
119933,50.84746
119967,48.32215
120000,48.32215
120033,48.32215
120067,48.32215
120100,48.32215
120133,48.32215
120167,48.32215
120200,48.32215
120233,48.64865
120267,48.64865
120300,48.64865
120333,48.64865
120367,48.64865
120400,48.64865
120433,48.64865
120467,48.64865
120500,48.64865
120533,48.64865
120567,48.64865
120600,48.64865
120633,48.64865
120667,48.64865
120700,48.64865
120733,48.64865
120767,48.64865
120800,48.64865
120833,48.64865
120867,48.64865
120900,51.42857
120933,51.42857
120967,51.42857
121000,51.42857
121033,51.42857
121067,51.42857
121100,51.42857
121133,51.42857
121167,51.79856
121200,51.79856
121233,51.79856
121267,51.79856
121300,55.21473
121333,55.21473
121367,55.21473
121400,55.21473
121433,55.21473
121467,55.21473
121500,55.21473
121533,55.21473
121567,55.21473
121600,55.21473
121633,55.21473
121667,55.21473
121700,55.21473
121733,55.21473
121767,55.21473
121800,55.21473
121833,55.21473
121867,55.21473
121900,55.21473
121933,55.21473
121967,56.25
122000,56.25
122033,56.25
122067,56.25
122100,56.25
122133,56.25
122167,56.25
122200,56.25
122233,56.25
122267,56.25
122300,56.25
122333,56.25
122367,56.25
122400,60.81081
122433,60.81081
122467,60.81081
122500,60.81081
122533,60.81081
122567,60.81081
122600,60.81081
122633,60.81081
122667,60.81081
122700,60.81081
122733,60.81081
122767,60.81081
122800,61.22449
122833,61.22449
122867,61.22449
122900,61.36364
122933,61.36364
122967,61.36364
123000,61.36364
123033,61.36364
123067,61.36364
123100,61.36364
123133,61.36364
123167,61.36364
123200,61.36364
123233,61.36364
123267,61.36364
123300,61.36364
123333,61.36364
123367,61.36364
123400,61.36364
123433,61.36364
123467,61.36364
123500,61.36364
123533,61.36364
123567,61.36364
123600,61.36364
123633,61.36364
123667,61.36364
123700,61.36364
123733,62.68657
123767,62.68657
123800,62.68657
123833,62.68657
123867,62.42775
123900,62.42775
123933,62.42775
123967,62.42775
124000,62.42775
124033,62.42775
124067,62.42775
124100,62.42775
124133,62.42775
124167,62.42775
124200,62.42775
124233,62.42775
124267,62.42775
124300,62.42775
124333,62.42775
124367,62.42775
124400,62.42775
124433,62.42775
124467,62.42775
124500,62.42775
124533,62.42775
124567,62.42775
124600,62.42775
124633,62.42775
124667,62.42775
124700,62.42775
124733,62.42775
124767,61.76471
124800,62.7907
124833,62.7907
124867,62.7907
124900,62.7907
124933,62.7907
124967,62.7907
125000,62.7907
125033,62.7907
125067,62.7907
125100,62.7907
125133,62.7907
125167,62.7907
125200,62.7907
125233,62.7907
125267,62.7907
125300,62.7907
125333,62.7907
125367,62.7907
125400,62.7907
125433,62.7907
125467,62.7907
125500,62.7907
125533,62.7907
125567,62.7907
125600,62.7907
125633,62.7907
125667,62.7907
125700,62.7907
125733,62.68657
125767,62.37624
125800,62.37624
125833,62.37624
125867,64.67066
125900,64.67066
125933,64.67066
125967,64.67066
126000,64.67066
126033,64.67066
126067,64.67066
126100,64.67066
126133,64.67066
126167,64.67066
126200,64.67066
126233,64.67066
126267,64.67066
126300,64.67066
126333,64.67066
126367,64.67066
126400,64.67066
126433,64.67066
126467,64.67066
126500,64.67066
126533,64.67066
126567,64.67066
126600,64.67066
126633,64.67066
126667,64.67066
126700,64.61539
126733,64.61539
126767,64.61539
126800,64.61539
126833,64.61539
126867,64.61539
126900,64.61539
126933,64.61539
126967,64.61539
127000,64.94846
127033,62.7907
127067,62.7907
127100,62.7907
127133,62.7907
127167,62.7907
127200,62.7907
127233,62.7907
127267,62.7907
127300,62.7907
127333,62.7907
127367,62.7907
127400,62.7907
127433,62.7907
127467,62.7907
127500,62.7907
127533,63.63636
127567,63.63636
127600,63.63636
127633,63.63636
127667,63.63636
127700,63.63636
127733,63.63636
127767,64.28571
127800,64.28571
127833,64.28571
127867,63.905330000000006
127900,63.905330000000006
127933,63.905330000000006
127967,63.905330000000006
128000,63.905330000000006
128033,63.905330000000006
128067,63.905330000000006
128100,63.905330000000006
128133,63.905330000000006
128167,63.905330000000006
128200,63.905330000000006
128233,63.905330000000006
128267,63.905330000000006
128300,63.905330000000006
128333,63.905330000000006
128367,63.905330000000006
128400,63.905330000000006
128433,63.905330000000006
128467,63.905330000000006
128500,63.905330000000006
128533,63.905330000000006
128567,63.31658
128600,63.31658
128633,63.31658
128667,63.31658
128700,63.31658
128733,63.31658
128767,63.52941
128800,63.52941
128833,63.52941
128867,63.52941
128900,63.52941
128933,63.52941
128967,63.52941
129000,63.52941
129033,63.52941
129067,63.52941
129100,63.52941
129133,63.52941
129167,63.52941
129200,63.52941
129233,63.52941
129267,63.52941
129300,63.52941
129333,63.52941
129367,63.52941
129400,63.52941
129433,63.52941
129467,63.52941
129500,63.52941
129533,63.52941
129567,63.52941
129600,63.52941
129633,63.52941
129667,62.06896999999999
129700,62.06896999999999
129733,62.06896999999999
129767,62.06896999999999
129800,62.06896999999999
129833,62.06896999999999
129867,62.06896999999999
129900,62.06896999999999
129933,62.06896999999999
129967,62.06896999999999
130000,62.06896999999999
130033,62.06896999999999
130067,62.06896999999999
130100,62.06896999999999
130133,56.25
130167,56.25
130200,56.25
130233,56.25
130267,56.25
130300,56.25
130333,56.25
130367,56.25
130400,56.25
130433,56.25
130467,56.25
130500,56.25
130533,56.25
130567,55.90062
130600,55.90062
130633,55.90062
130667,55.90062
130700,55.90062
130733,55.90062
130767,55.90062
130800,55.90062
130833,55.90062
130867,55.90062
130900,55.90062
130933,55.90062
130967,55.90062
131000,55.90062
131033,55.90062
131067,55.90062
131100,55.90062
131133,55.90062
131167,55.90062
131200,55.90062
131233,55.90062
131267,55.90062
131300,55.55556
131333,55.55556
131367,55.55556
131400,55.55556
131433,53.73134
131467,53.73134
131500,53.73134
131533,53.73134
131567,52.94118
131600,52.94118
131633,52.94118
131667,52.94118
131700,52.94118
131733,52.94118
131767,52.94118
131800,52.94118
131833,52.94118
131867,52.94118
131900,52.94118
131933,53.25444
131967,53.57143000000001
132000,53.57143000000001
132033,53.57143000000001
132067,53.57143000000001
132100,53.57143000000001
132133,53.57143000000001
132167,53.57143000000001
132200,53.57143000000001
132233,53.57143000000001
132267,53.57143000000001
132300,53.57143000000001
132333,54.82233000000001
132367,54.54546
132400,54.54546
132433,54.54546
132467,54.54546
132500,54.54546
132533,54.54546
132567,54.54546
132600,52.63158000000001
132633,52.63158000000001
132667,52.63158000000001
132700,52.63158000000001
132733,52.63158000000001
132767,52.63158000000001
132800,52.63158000000001
132833,52.63158000000001
132867,52.63158000000001
132900,52.63158000000001
132933,52.63158000000001
132967,52.63158000000001
133000,52.63158000000001
133033,52.63158000000001
133067,52.63158000000001
133100,52.63158000000001
133133,52.63158000000001
133167,52.63158000000001
133200,52.63158000000001
133233,52.63158000000001
133267,52.63158000000001
133300,52.63158000000001
133333,52.63158000000001
133367,52.63158000000001
133400,53.46535
133433,53.46535
133467,53.46535
133500,51.42857
133533,51.42857
133567,51.42857
133600,51.42857
133633,51.42857
133667,51.42857
133700,51.42857
133733,51.42857
133767,51.42857
133800,51.42857
133833,51.42857
133867,51.42857
133900,51.42857
133933,51.42857
133967,51.42857
134000,51.42857
134033,51.42857
134067,51.42857
134100,51.42857
134133,51.42857
134167,51.42857
134200,51.42857
134233,51.42857
134267,51.42857
134300,51.42857
134333,51.42857
134367,51.72414000000001
134400,51.72414000000001
134433,51.72414000000001
134467,51.72414000000001
134500,51.72414000000001
134533,51.72414000000001
134567,51.72414000000001
134600,51.72414000000001
134633,51.72414000000001
134667,51.72414000000001
134700,51.72414000000001
134733,51.72414000000001
134767,51.72414000000001
134800,51.72414000000001
134833,51.72414000000001
134867,51.72414000000001
134900,51.72414000000001
134933,51.72414000000001
134967,51.72414000000001
135000,51.72414000000001
135033,51.72414000000001
135067,51.72414000000001
135100,51.72414000000001
135133,51.72414000000001
135167,51.72414000000001
135200,51.72414000000001
135233,51.72414000000001
135267,51.72414000000001
135300,51.72414000000001
135333,53.20197
135367,53.20197
135400,57.69231
135433,57.69231
135467,57.69231
135500,57.69231
135533,57.69231
135567,57.69231
135600,57.69231
135633,57.69231
135667,57.69231
135700,57.69231
135733,57.69231
135767,57.69231
135800,57.69231
135833,57.69231
135867,57.69231
135900,57.69231
135933,57.69231
135967,57.69231
136000,57.69231
136033,57.69231
136067,57.69231
136100,57.69231
136133,57.69231
136167,57.69231
136200,57.69231
136233,57.69231
136267,57.69231
136300,57.69231
136333,57.69231
136367,57.69231
136400,57.69231
136433,57.69231
136467,57.69231
136500,57.69231
136533,57.69231
136567,57.69231
136600,57.69231
136633,57.69231
136667,57.69231
136700,57.69231
136733,57.69231
136767,57.69231
136800,57.69231
136833,57.69231
136867,57.69231
136900,57.69231
136933,57.69231
136967,60.0
137000,60.0
137033,60.0
137067,60.0
137100,60.0
137133,60.0
137167,60.0
137200,60.0
137233,60.0
137267,60.0
137300,60.0
137333,60.0
137367,60.0
137400,60.0
137433,51.42857
137467,51.42857
137500,51.42857
137533,51.42857
137567,51.42857
137600,51.42857
137633,51.42857
137667,51.42857
137700,51.42857
137733,51.42857
137767,51.42857
137800,51.42857
137833,51.42857
137867,51.42857
137900,51.42857
137933,51.42857
137967,51.42857
138000,51.42857
138033,51.42857
138067,51.42857
138100,51.42857
138133,51.42857
138167,50.0
138200,50.0
138233,50.0
138267,50.0
138300,49.65517
138333,49.65517
138367,49.65517
138400,49.65517
138433,49.65517
138467,49.65517
138500,49.65517
138533,49.65517
138567,49.65517
138600,49.65517
138633,49.65517
138667,49.65517
138700,49.65517
138733,49.65517
138767,49.65517
138800,49.65517
138833,49.65517
138867,49.65517
138900,49.65517
138933,45.68528
138967,45.68528
139000,45.68528
139033,45.68528
139067,45.68528
139100,45.68528
139133,45.68528
139167,45.68528
139200,43.37349
139233,43.37349
139267,43.37349
139300,43.37349
139333,43.37349
139367,43.37349
139400,43.37349
139433,43.37349
139467,43.37349
139500,43.37349
139533,43.37349
139567,43.37349
139600,43.37349
139633,43.37349
139667,43.37349
139700,43.37349
139733,43.37349
139767,43.37349
139800,43.37349
139833,43.37349
139867,46.39175
139900,46.39175
139933,46.39175
139967,46.39175
140000,46.39175
140033,46.39175
140067,46.39175
140100,46.39175
140133,46.39175
140167,46.39175
140200,46.39175
140233,43.63636
140267,43.63636
140300,43.63636
140333,43.63636
140367,43.90244000000001
140400,43.90244000000001
140433,43.90244000000001
140467,43.90244000000001
140500,43.90244000000001
140533,43.90244000000001
140567,43.90244000000001
140600,43.90244000000001
140633,43.90244000000001
140667,43.90244000000001
140700,43.90244000000001
140733,47.12042
140767,47.12042
140800,47.12042
140833,47.12042
140867,47.12042
140900,47.12042
140933,47.12042
140967,47.12042
141000,47.12042
141033,47.12042
141067,47.12042
141100,47.12042
141133,47.12042
141167,47.12042
141200,44.44444
141233,44.44444
141267,44.44444
141300,44.44444
141333,44.44444
141367,44.44444
141400,44.44444
141433,44.44444
141467,44.44444
141500,48.64865
141533,48.64865
141567,48.64865
141600,48.64865
141633,48.64865
141667,48.3871
141700,48.3871
141733,48.3871
141767,48.3871
141800,48.3871
141833,48.3871
141867,48.3871
141900,48.12834
141933,48.12834
141967,48.12834
142000,48.12834
142033,48.12834
142067,48.12834
142100,48.12834
142133,48.12834
142167,54.961830000000006
142200,54.961830000000006
142233,54.961830000000006
142267,54.961830000000006
142300,54.961830000000006
142333,54.961830000000006
142367,54.961830000000006
142400,54.961830000000006
142433,54.961830000000006
142467,54.961830000000006
142500,54.961830000000006
142533,54.961830000000006
142567,54.961830000000006
142600,54.961830000000006
142633,54.961830000000006
142667,54.961830000000006
142700,54.961830000000006
142733,54.961830000000006
142767,54.961830000000006
142800,54.961830000000006
142833,54.961830000000006
142867,54.961830000000006
142900,52.63158000000001
142933,52.63158000000001
142967,52.63158000000001
143000,52.94118
143033,52.94118
143067,52.94118
143100,52.94118
143133,52.94118
143167,52.94118
143200,52.94118
143233,52.94118
143267,52.94118
143300,52.94118
143333,52.94118
143367,52.94118
143400,52.94118
143433,52.94118
143467,52.94118
143500,52.94118
143533,52.94118
143567,52.94118
143600,52.94118
143633,52.94118
143667,52.94118
143700,52.94118
143733,52.94118
143767,52.94118
143800,52.94118
143833,52.94118
143867,52.63158000000001
143900,52.63158000000001
143933,52.63158000000001
143967,52.63158000000001
144000,52.63158000000001
144033,60.5042
144067,60.5042
144100,60.5042
144133,60.5042
144167,60.5042
144200,60.5042
144233,60.5042
144267,60.5042
144300,60.5042
144333,60.5042
144367,60.5042
144400,60.5042
144433,60.40268
144467,60.40268
144500,60.40268
144533,60.40268
144567,60.40268
144600,60.40268
144633,60.40268
144667,60.40268
144700,60.40268
144733,60.40268
144767,60.40268
144800,60.40268
144833,60.40268
144867,60.40268
144900,60.40268
144933,60.0
144967,59.66851
145000,59.66851
145033,59.66851
145067,59.66851
145100,59.66851
145133,60.0
145167,60.0
145200,60.0
145233,60.0
145267,60.0
145300,60.0
145333,60.0
145367,60.0
145400,60.0
145433,60.0
145467,60.0
145500,60.0
145533,60.0
145567,60.0
145600,60.0
145633,60.0
145667,60.0
145700,60.0
145733,60.0
145767,58.82353000000001
145800,58.82353000000001
145833,60.0
145867,60.0
145900,60.0
145933,60.0
145967,60.0
146000,60.0
146033,60.0
146067,60.0
146100,60.0
146133,60.0
146167,60.0
146200,60.0
146233,60.0
146267,60.0
146300,60.0
146333,60.0
146367,60.0
146400,60.0
146433,60.0
146467,60.0
146500,60.0
146533,60.0
146567,60.0
146600,60.0
146633,60.0
146667,58.82353000000001
146700,58.82353000000001
146733,58.82353000000001
146767,58.82353000000001
146800,58.82353000000001
146833,58.82353000000001
146867,58.82353000000001
146900,58.82353000000001
146933,58.82353000000001
146967,58.82353000000001
147000,58.82353000000001
147033,58.82353000000001
147067,58.82353000000001
147100,58.82353000000001
147133,58.82353000000001
147167,58.82353000000001
147200,58.82353000000001
147233,58.82353000000001
147267,58.82353000000001
147300,58.82353000000001
147333,58.82353000000001
147367,58.82353000000001
147400,58.82353000000001
147433,58.82353000000001
147467,58.82353000000001
147500,54.54546
147533,54.54546
147567,52.02312
147600,52.63158000000001
147633,52.63158000000001
147667,52.63158000000001
147700,57.69231
147733,57.69231
147767,58.06452
147800,58.06452
147833,52.02312
147867,52.02312
147900,52.02312
147933,52.02312
147967,52.02312
148000,62.42775
148033,62.42775
148067,64.61539
148100,63.95939
148133,63.95939
148167,63.95939
148200,63.95939
148233,63.95939
148267,63.95939
148300,63.95939
148333,63.95939
148367,69.23076999999999
148400,69.23076999999999
148433,69.23076999999999
148467,69.67742
148500,69.67742
148533,69.67742
148567,69.67742
148600,69.67742
148633,73.25581
148667,73.25581
148700,73.25581
148733,73.25581
148767,73.25581
148800,73.25581
148833,73.25581
148867,73.25581
148900,73.25581
148933,73.25581
148967,73.25581
149000,73.25581
149033,73.25581
149067,73.25581
149100,73.25581
149133,73.25581
149167,73.25581
149200,73.25581
149233,73.25581
149267,73.25581
149300,73.25581
149333,73.25581
149367,73.25581
149400,73.84615
149433,73.84615
149467,73.84615
149500,73.84615
149533,73.84615
149567,73.84615
149600,73.84615
149633,73.84615
149667,73.84615
149700,73.84615
149733,75.4491
149767,75.4491
149800,75.4491
149833,75.4491
149867,75.4491
149900,75.4491
149933,75.4491
149967,75.4491
150000,75.4491
150033,75.4491
150067,75.4491
150100,75.4491
150133,75.4491
150167,75.4491
150200,76.59574
150233,76.59574
150267,76.59574
150300,76.59574
150333,76.59574
150367,77.00535
150400,77.00535
150433,77.00535
150467,77.00535
150500,77.00535
150533,77.00535
150567,77.00535
150600,77.00535
150633,77.00535
150667,82.89474
150700,84.21053
150733,84.21053
150767,84.21053
150800,84.21053
150833,84.21053
150867,84.21053
150900,84.21053
150933,84.21053
150967,84.21053
151000,84.21053
151033,84.21053
151067,84.21053
151100,84.21053
151133,84.21053
151167,84.21053
151200,84.21053
151233,84.21053
151267,84.21053
151300,84.21053
151333,83.72093000000002
151367,83.72093000000002
151400,83.72093000000002
151433,83.72093000000002
151467,83.50516
151500,83.50516
151533,83.50516
151567,83.50516
151600,83.50516
151633,83.50516
151667,83.50516
151700,83.50516
151733,83.50516
151767,83.50516
151800,83.50516
151833,85.2071
151867,85.2071
151900,85.2071
151933,85.2071
151967,85.2071
152000,85.2071
152033,85.2071
152067,85.2071
152100,85.2071
152133,85.2071
152167,86.63101999999998
152200,86.63101999999998
152233,86.63101999999998
152267,86.63101999999998
152300,86.63101999999998
152333,86.63101999999998
152367,86.63101999999998
152400,86.63101999999998
152433,86.63101999999998
152467,86.63101999999998
152500,86.63101999999998
152533,86.63101999999998
152567,86.63101999999998
152600,86.63101999999998
152633,86.63101999999998
152667,89.50276
152700,89.01099
152733,89.01099
152767,89.01099
152800,89.01099
152833,89.01099
152867,89.01099
152900,89.01099
152933,89.01099
152967,89.01099
153000,89.01099
153033,89.01099
153067,89.01099
153100,89.01099
153133,89.01099
153167,89.01099
153200,89.01099
153233,89.01099
153267,89.01099
153300,89.01099
153333,89.01099
153367,89.01099
153400,88.66995
153433,88.66995
153467,89.01099
153500,89.01099
153533,89.01099
153567,89.01099
153600,89.01099
153633,89.01099
153667,89.01099
153700,89.01099
153733,89.01099
153767,89.01099
153800,89.01099
153833,89.01099
153867,89.01099
153900,89.01099
153933,89.01099
153967,89.01099
154000,89.01099
154033,89.01099
154067,89.10891
154100,89.10891
154133,89.10891
154167,90.0
154200,90.0
154233,90.0
154267,90.0
154300,90.0
154333,90.0
154367,90.0
154400,90.0
154433,90.0
154467,90.0
154500,90.0
154533,90.0
154567,90.0
154600,90.0
154633,90.0
154667,90.0
154700,90.45226
154733,90.45226
154767,90.45226
154800,90.45226
154833,90.45226
154867,90.45226
154900,90.0
154933,90.0
154967,90.0
155000,90.0
155033,90.0
155067,90.0
155100,90.0
155133,90.0
155167,90.0
155200,90.0
155233,90.0
155267,90.0
155300,90.90909
155333,90.90909
155367,90.90909
155400,90.90909
155433,90.90909
155467,90.90909
155500,90.90909
155533,91.52542
155567,91.52542
155600,91.52542
155633,91.52542
155667,91.52542
155700,91.52542
155733,91.01124
155767,91.01124
155800,91.01124
155833,91.01124
155867,90.50279
155900,90.50279
155933,90.50279
155967,90.50279
156000,90.90909
156033,81.81818
156067,81.81818
156100,81.81818
156133,81.81818
156167,81.81818
156200,81.81818
156233,80.89888
156267,80.89888
156300,80.89888
156333,80.89888
156367,80.89888
156400,80.89888
156433,80.89888
156467,80.89888
156500,80.89888
156533,80.89888
156567,80.89888
156600,80.89888
156633,80.89888
156667,80.89888
156700,80.89888
156733,80.89888
156767,70.78650999999998
156800,71.28713
156833,71.28713
156867,71.28713
156900,69.23076999999999
156933,69.23076999999999
156967,69.23076999999999
157000,69.23076999999999
157033,69.23076999999999
157067,69.23076999999999
157100,69.23076999999999
157133,69.23076999999999
157167,69.23076999999999
157200,68.85246
157233,68.85246
157267,68.85246
157300,68.85246
157333,68.85246
157367,68.85246
157400,68.85246
157433,68.85246
157467,68.85246
157500,68.85246
157533,67.92453
157567,67.5
157600,67.5
157633,67.5
157667,68.10811
157700,68.10811
157733,77.83784
157767,77.83784
157800,77.83784
157833,77.83784
157867,77.83784
157900,77.83784
157933,77.83784
157967,77.83784
158000,77.83784
158033,77.83784
158067,77.83784
158100,77.83784
158133,77.83784
158167,77.83784
158200,77.83784
158233,77.83784
158267,77.83784
158300,77.83784
158333,84.0
158367,84.21053
158400,84.21053
158433,84.21053
158467,84.21053
158500,84.21053
158533,84.21053
158567,84.21053
158600,84.21053
158633,84.21053
158667,84.21053
158700,84.21053
158733,84.21053
158767,84.21053
158800,84.21053
158833,84.21053
158867,84.21053
158900,84.21053
158933,84.21053
158967,84.21053
159000,84.21053
159033,84.81676
159067,84.81676
159100,84.81676
159133,84.81676
159167,84.81676
159200,84.81676
159233,84.81676
159267,84.81676
159300,84.81676
159333,84.81676
159367,84.81676
159400,84.81676
159433,84.81676
159467,84.81676
159500,85.2071
159533,85.2071
159567,85.2071
159600,85.2071
159633,85.2071
159667,85.2071
159700,85.2071
159733,85.2071
159767,85.2071
159800,84.375
159833,84.375
159867,84.375
159900,84.375
159933,84.375
159967,84.375
160000,84.375
160033,84.375
160067,84.375
160100,84.375
160133,84.375
160167,84.375
160200,84.375
160233,83.72093000000002
160267,83.72093000000002
160300,83.72093000000002
160333,83.72093000000002
160367,83.72093000000002
160400,83.72093000000002
160433,83.72093000000002
160467,83.72093000000002
160500,83.72093000000002
160533,83.72093000000002
160567,83.72093000000002
160600,83.72093000000002
160633,83.72093000000002
160667,83.72093000000002
160700,83.72093000000002
160733,83.72093000000002
160767,82.23351
160800,82.23351
160833,82.23351
160867,82.23351
160900,81.35593
160933,81.35593
160967,81.35593
161000,81.35593
161033,81.35593
161067,81.35593
161100,81.35593
161133,81.35593
161167,81.35593
161200,81.35593
161233,81.35593
161267,81.35593
161300,81.35593
161333,81.35593
161367,81.40704000000002
161400,81.40704000000002
161433,81.40704000000002
161467,81.40704000000002
161500,81.40704000000002
161533,81.40704000000002
161567,79.12088
161600,79.12088
161633,79.12088
161667,79.12088
161700,79.12088
161733,79.12088
161767,79.12088
161800,79.12088
161833,79.12088
161867,79.12088
161900,79.12088
161933,79.12088
161967,79.12088
162000,79.12088
162033,80.19802
162067,80.19802
162100,80.19802
162133,81.81818
162167,81.81818
162200,81.81818
162233,81.81818
162267,81.81818
162300,81.81818
162333,81.81818
162367,81.81818
162400,81.81818
162433,81.81818
162467,81.81818
162500,81.81818
162533,81.81818
162567,81.35593
162600,81.35593
162633,81.35593
162667,81.35593
162700,81.35593
162733,81.35593
162767,81.35593
162800,81.35593
162833,81.35593
162867,81.35593
162900,80.44693000000002
162933,81.29032
162967,81.29032
163000,81.29032
163033,81.29032
163067,81.29032
163100,77.41936
163133,77.41936
163167,77.41936
163200,77.41936
163233,77.41936
163267,77.41936
163300,77.41936
163333,77.41936
163367,77.41936
163400,77.41936
163433,76.59574
163467,76.59574
163500,76.59574
163533,76.59574
163567,76.59574
163600,76.59574
163633,75.78947
163667,75.78947
163700,75.78947
163733,75.4491
163767,75.4491
163800,75.4491
163833,75.4491
163867,75.4491
163900,75.4491
163933,75.4491
163967,75.4491
164000,75.4491
164033,75.4491
164067,75.0
164100,75.0
164133,75.0
164167,75.0
164200,75.0
164233,75.0
164267,75.0
164300,75.0
164333,75.0
164367,75.0
164400,75.0
164433,75.0
164467,75.0
164500,73.68421
164533,73.68421
164567,73.68421
164600,73.68421
164633,73.68421
164667,73.68421
164700,73.68421
164733,73.68421
164767,73.68421
164800,73.68421
164833,74.22681
164867,74.22681
164900,74.22681
164933,74.22681
164967,74.22681
165000,74.22681
165033,74.22681
165067,74.22681
165100,74.22681
165133,74.22681
165167,74.22681
165200,72.4138
165233,72.4138
165267,72.4138
165300,72.4138
165333,72.4138
165367,72.4138
165400,75.39267
165433,75.39267
165467,75.39267
165500,75.39267
165533,75.39267
165567,75.39267
165600,75.39267
165633,75.39267
165667,75.39267
165700,75.39267
165733,75.39267
165767,75.39267
165800,75.39267
165833,75.39267
165867,75.0
165900,75.0
165933,75.0
165967,75.0
166000,75.0
166033,75.0
166067,75.0
166100,76.19048000000002
166133,76.19048000000002
166167,76.19048000000002
166200,76.19048000000002
166233,76.19048000000002
166267,76.19048000000002
166300,76.19048000000002
166333,76.19048000000002
166367,76.19048000000002
166400,76.19048000000002
166433,76.19048000000002
166467,76.19048000000002
166500,76.19048000000002
166533,76.19048000000002
166567,76.19048000000002
166600,76.19048000000002
166633,76.82927
166667,76.82927
166700,76.82927
166733,76.82927
166767,76.82927
166800,76.82927
166833,77.41936
166867,77.41936
166900,77.41936
166933,77.41936
166967,77.41936
167000,77.41936
167033,77.41936
167067,77.41936
167100,77.41936
167133,77.41936
167167,77.41936
167200,77.41936
167233,77.41936
167267,77.41936
167300,77.41936
167333,77.41936
167367,77.41936
167400,77.41936
167433,77.41936
167467,76.82927
167500,76.82927
167533,76.82927
167567,76.82927
167600,76.82927
167633,76.82927
167667,76.19048000000002
167700,76.19048000000002
167733,76.19048000000002
167767,76.19048000000002
167800,76.19048000000002
167833,76.19048000000002
167867,76.19048000000002
167900,76.19048000000002
167933,76.19048000000002
167967,76.19048000000002
168000,76.19048000000002
168033,76.19048000000002
168067,76.19048000000002
168100,76.19048000000002
168133,76.19048000000002
168167,76.19048000000002
168200,74.55621
168233,74.55621
168267,74.55621
168300,74.55621
168333,74.55621
168367,74.55621
168400,74.55621
168433,74.55621
168467,74.6114
168500,74.6114
168533,74.6114
168567,74.6114
168600,74.6114
168633,74.6114
168667,74.6114
168700,74.6114
168733,74.6114
168767,74.6114
168800,74.6114
168833,74.6114
168867,80.25478000000003
168900,80.25478000000003
168933,80.25478000000003
168967,80.25478000000003
169000,80.25478000000003
169033,80.25478000000003
169067,80.25478000000003
169100,80.25478000000003
169133,80.25478000000003
169167,80.25478000000003
169200,80.25478000000003
169233,80.25478000000003
169267,80.25478000000003
169300,80.25478000000003
169333,80.25478000000003
169367,81.35593
169400,80.25478000000003
169433,80.25478000000003
169467,80.25478000000003
169500,80.25478000000003
169533,80.25478000000003
169567,80.25478000000003
169600,80.25478000000003
169633,80.25478000000003
169667,80.25478000000003
169700,74.22681
169733,74.22681
169767,74.22681
169800,74.22681
169833,74.22681
169867,74.22681
169900,74.22681
169933,74.22681
169967,74.22681
170000,74.22681
170033,74.22681
170067,74.55621
170100,74.55621
170133,74.55621
170167,74.55621
170200,74.55621
170233,74.55621
170267,74.55621
170300,74.55621
170333,76.59574
170367,76.59574
170400,76.59574
170433,76.59574
170467,76.59574
170500,76.59574
170533,76.59574
170567,76.59574
170600,76.59574
170633,76.59574
170667,76.59574
170700,76.59574
170733,76.59574
170767,76.59574
170800,76.59574
170833,76.59574
170867,76.59574
170900,76.36364
170933,76.36364
170967,76.36364
171000,76.36364
171033,76.36364
171067,77.00535
171100,77.00535
171133,77.00535
171167,77.00535
171200,77.00535
171233,77.00535
171267,77.00535
171300,77.41936
171333,77.41936
171367,77.41936
171400,77.41936
171433,77.41936
171467,77.41936
171500,77.41936
171533,77.41936
171567,77.41936
171600,77.41936
171633,77.41936
171667,77.41936
171700,74.55621
171733,74.55621
171767,74.55621
171800,74.55621
171833,74.55621
171867,74.55621
171900,74.55621
171933,74.55621
171967,74.55621
172000,74.55621
172033,74.55621
172067,74.55621
172100,74.55621
172133,74.55621
172167,73.84615
172200,73.84615
172233,72.4138
172267,72.4138
172300,72.4138
172333,72.4138
172367,72.4138
172400,72.4138
172433,72.4138
172467,72.4138
172500,72.4138
172533,72.4138
172567,72.0
172600,72.0
172633,72.0
172667,72.0
172700,72.0
172733,72.0
172767,72.0
172800,71.64179
172833,71.64179
172867,71.64179
172900,71.64179
172933,70.39106
172967,70.39106
173000,70.39106
173033,70.39106
173067,70.39106
173100,70.39106
173133,70.39106
173167,70.39106
173200,70.39106
173233,70.39106
173267,70.39106
173300,70.39106
173333,70.39106
173367,70.39106
173400,70.39106
173433,70.39106
173467,70.39106
173500,70.39106
173533,71.64179
173567,70.39106
173600,70.93596
173633,70.93596
173667,70.78650999999998
173700,70.78650999999998
173733,70.78650999999998
173767,70.78650999999998
173800,70.78650999999998
173833,70.78650999999998
173867,70.78650999999998
173900,70.78650999999998
173933,70.78650999999998
173967,70.78650999999998
174000,70.78650999999998
174033,70.78650999999998
174067,70.78650999999998
174100,70.78650999999998
174133,70.78650999999998
174167,70.78650999999998
174200,70.78650999999998
174233,70.78650999999998
174267,70.78650999999998
174300,70.78650999999998
174333,70.78650999999998
174367,70.78650999999998
174400,70.78650999999998
174433,70.78650999999998
174467,70.58823000000002
174500,70.0
174533,70.0
174567,70.0
174600,70.0
174633,70.0
174667,70.0
174700,70.0
174733,70.0
174767,70.0
174800,70.0
174833,70.0
174867,70.0
174900,70.0
174933,70.0
174967,70.0
175000,70.0
175033,70.0
175067,70.0
175100,70.0
175133,70.0
175167,70.0
175200,70.0
175233,70.93596
175267,70.93596
175300,75.4491
175333,75.4491
175367,75.4491
175400,75.4491
175433,75.0
175467,75.0
175500,75.0
175533,75.0
175567,75.0
175600,75.0
175633,75.0
175667,75.0
175700,75.0
175733,75.0
175767,75.0
175800,75.0
175833,75.0
175867,75.0
175900,75.0
175933,75.0
175967,75.0
176000,75.0
176033,75.0
176067,75.0
176100,75.0
176133,75.0
176167,75.0
176200,75.0
176233,75.0
176267,75.0
176300,75.0
176333,75.0
176367,74.22681
176400,74.22681
176433,74.22681
176467,74.22681
176500,72.0
176533,72.0
176567,72.0
176600,72.0
176633,72.0
176667,72.0
176700,72.0
176733,72.0
176767,72.0
176800,72.0
176833,72.0
176867,72.0
176900,72.0
176933,72.0
176967,72.0
177000,72.0
177033,71.28713
177067,71.28713
177100,71.28713
177133,70.39106
177167,70.39106
177200,70.39106
177233,70.39106
177267,70.39106
177300,70.39106
177333,70.39106
177367,70.39106
177400,70.39106
177433,70.39106
177467,70.39106
177500,70.39106
177533,70.39106
177567,70.39106
177600,70.39106
177633,70.39106
177667,70.39106
177700,70.39106
177733,70.39106
177767,70.39106
177800,70.39106
177833,70.39106
177866,70.39106
177900,70.39106
177933,70.39106
177966,70.39106
178000,70.39106
178033,70.39106
178066,70.39106
178100,70.39106
178133,70.39106
178166,70.39106
178200,70.39106
178233,70.39106
178266,70.39106
178300,70.39106
178333,70.39106
178366,70.39106
178400,70.39106
178433,70.39106
178466,70.39106
178500,70.39106
178533,70.39106
178566,70.39106
178600,70.39106
178633,70.39106
178666,70.39106
178700,70.39106
178733,70.39106
178766,70.39106
178800,70.39106
178833,70.39106
178866,70.39106
178900,70.39106
178933,70.39106
178966,70.39106
179000,70.39106
179033,70.39106
179066,70.39106
179100,70.39106
179133,70.39106
179166,70.39106
179200,70.39106
179233,70.39106
179266,70.39106
179300,70.39106
179333,70.39106
179366,70.39106
179400,70.39106
179433,70.39106
179466,70.39106
179500,70.39106
179533,70.39106
179566,70.39106
179600,70.39106
179633,70.39106
179666,70.39106
179700,70.39106
179733,70.39106
179766,70.39106
179800,70.39106
179833,70.39106
179866,70.39106
179900,70.39106
179933,70.39106
179966,70.39106
180000,70.39106
180033,70.39106
180066,70.39106
180100,70.39106
180133,70.39106
180166,70.39106
180200,70.39106
180233,70.39106
180266,70.39106
180300,70.39106
180333,70.39106
180366,70.39106
180400,70.39106
180433,70.39106
180466,70.39106
180500,70.39106
180533,70.39106
180566,70.39106
180600,70.39106
180633,70.39106
180666,70.39106
180700,70.39106
180733,70.39106
180766,70.39106
180800,70.39106
180833,70.39106
180866,70.39106
180900,70.39106
180933,70.39106
180966,70.39106
181000,70.39106
181033,70.39106
181066,70.39106
181100,70.39106
181133,70.39106
181166,70.39106
181200,70.39106
181233,70.39106
181266,70.39106
181300,70.39106
181333,70.39106
181366,70.39106
181400,70.39106
181433,70.39106
181466,70.39106
181500,70.39106
181533,70.39106
181566,70.39106
181600,70.39106
181633,70.39106
181666,70.39106
181700,70.39106
181733,70.39106
181766,70.39106
181800,70.39106
181833,70.39106
181866,70.39106
181900,70.39106
181933,70.39106
181966,70.39106
182000,70.39106
182033,70.39106
182066,70.39106
182100,70.39106
182133,70.39106
182166,70.39106
182200,70.39106
182233,70.39106
182266,70.39106
182300,70.39106
182333,70.39106
182366,70.39106
182400,70.39106
182433,70.39106
182466,70.39106
182500,70.39106
182533,70.39106
182566,70.39106
182600,70.39106
182633,70.39106
182666,70.39106
182700,70.39106
182733,70.39106
182766,70.39106
182800,70.39106
182833,70.39106
182866,70.39106
182900,70.39106
182933,70.39106
182966,70.39106
183000,70.39106
183033,70.39106
183066,70.39106
183100,70.39106
183133,70.39106
183166,70.39106
183200,70.39106
183233,70.39106
183266,70.39106
183300,70.39106
183333,70.39106
183366,70.39106
183400,70.39106
183433,70.39106
183466,70.39106
183500,70.39106
183533,70.39106
183566,70.39106
183600,70.39106
183633,70.39106
183666,70.39106
183700,70.39106
183733,70.39106
183766,70.39106
183800,70.39106
183833,70.39106
183866,70.39106
183900,70.39106
183933,70.39106
183966,70.39106
184000,70.39106
184033,70.39106
184066,70.39106
184100,70.39106
184133,70.39106
184166,70.39106
184200,70.39106
184233,70.39106
184266,70.39106
184300,70.39106
184333,70.39106
184366,70.39106
184400,70.39106
184433,70.39106
184466,70.39106
184500,70.39106
184533,70.39106
184566,70.39106
184600,70.39106
184633,70.39106
184666,70.39106
