B,G,R,Time[ms]
114.73144838212635,96.04320493066255,72.20739599383667,0.0
114.73175654853621,96.04357473035436,72.20764252696456,33.333333333333336
115.00551229195295,95.99131165063368,72.76404031149794,66.66666666666667
114.72183449651048,96.15057903213436,72.40463225707494,100.0
115.0913106833346,96.1303627578802,72.9091034588542,133.33333333333334
114.72293479920602,96.2237746220797,72.56229958772332,166.66666666666666
115.10483932816936,96.28345732034666,72.90399570519213,200.0
115.11322954214279,96.30566761254698,72.9398113352251,233.33333333333331
114.81300713244879,96.31479407930055,72.5698443132142,266.6666666666667
115.19413650939077,96.30438234845016,73.23040158802871,300.0
114.98308554190909,96.46366238803213,72.69935666574322,333.3333333333333
115.03211177278976,96.27761490303864,73.02553061536113,366.6666666666666
114.60869164619163,96.1504914004914,72.38984950859953,400.0
114.71252396656185,96.31029986962193,72.50586701434159,433.33333333333337
115.24291254963524,96.19580139748207,72.87889001754549,466.66666666666674
114.7743998772912,96.1243193496434,72.54645294884577,500.0
115.10579032134363,95.95711327555794,72.81958739167115,533.3333333333334
114.74806350180228,96.01917324948231,72.44690543753356,566.6666666666666
115.07585516178736,95.91258859784284,72.6795223420647,600.0
115.1126502311248,95.90488443759632,72.7262095531587,633.3333333333333
114.90701917130491,96.08463203463205,72.3841218305504,666.6666666666666
115.15964749536178,96.07864873222016,72.60077303648733,700.0
114.91144094001235,96.12339208410636,72.31745516388374,733.3333333333333
115.4971300031027,96.21577722618677,72.89765746199194,766.6666666666667
115.10299136719534,96.34784488749555,72.59833521226815,800.0
115.04413695118372,96.37840717804579,72.56737139591988,833.3333333333335
115.20711361467664,96.24426693754423,72.9162126389017,866.6666666666667
114.96963400744913,96.37804352510237,72.6000707975498,900.0
115.42642039751057,96.40239062282828,72.98015535959723,933.3333333333336
115.22493166339784,96.53915648695812,72.72847590073046,966.6666666666664
115.3465386154462,96.45621325453259,73.07369101486749,1000.0
115.15396886264284,96.34912186517371,72.99993864560166,1033.3333333333335
115.0119278480623,96.56570320435871,72.69681718841383,1066.6666666666667
115.47386221487808,96.6812657328618,73.05386623013605,1100.0
114.86235140731651,96.5487997545824,72.57801978679348,1133.3333333333333
115.05360840555258,96.37450724748831,72.93143645985121,1166.6666666666667
114.82483821263482,96.31263482280431,72.48865947611709,1200.0
114.7833590138675,96.33223420647148,72.45633281972265,1233.3333333333335
115.28509865484655,96.27977344784071,73.11309139040232,1266.6666666666665
114.8577584880106,96.23966509680795,72.69709422230432,1300.0
114.98605721297646,95.98696219035205,72.99980059820538,1333.3333333333333
115.07496177783268,96.24747888128736,72.75965592327768,1366.6666666666667
115.22458214054852,96.0555299042694,72.98802597962262,1400.0
115.24131190937914,96.0633638070613,73.00558685012467,1433.333333333333
114.89704700061844,96.05400432900429,72.50867346938777,1466.6666666666665
114.95987422348341,95.94645294884577,72.85442135133063,1500.0
115.05867204467886,96.17218430034129,72.55313372634191,1533.3333333333335
114.97515146867092,96.02038499884961,72.86048009816705,1566.666666666667
114.67531252396655,96.12637472198787,72.51230922616766,1600.0
114.68078582434515,96.09298921417565,72.37543913713405,1633.333333333333
114.62440512507628,96.02751677852348,72.59514948139109,1666.666666666667
114.17537537537537,96.03309309309307,72.53974474474472,1700.0
114.33675946180814,95.77249707830153,72.82688561925025,1733.3333333333335
114.13307692307691,96.02499245852188,72.34864253393665,1766.6666666666665
114.6393432654302,96.04743083003952,72.7685618729097,1800.0
114.80742830994508,96.16133312995727,72.82472544234291,1833.333333333333
114.65006121824304,96.31476890113257,72.47819100091826,1866.666666666667
114.91229032405504,96.39892134009779,72.93130399012752,1900.0
114.62266605448423,96.36028466483013,72.54043464952557,1933.333333333333
114.92752486816414,96.37921067601437,72.75394738865059,1966.6666666666665
114.69847639254031,96.34529465123072,72.54703811324816,2000.0
114.91395162285572,96.45116006417378,72.61565161051462,2033.333333333333
115.06613291373566,96.43429902505244,72.75891645069727,2066.666666666667
114.54087684970035,96.34173596673595,72.63450837715544,2100.0
114.85307125307123,96.27496928746928,72.83200245700245,2133.333333333333
114.73338578304329,96.19773540663952,72.60241577193631,2166.6666666666665
114.99207616707615,96.21859643734643,73.03201781326781,2200.0
115.02037776412777,96.2106265356265,73.0698402948403,2233.333333333333
114.721421990172,96.14161547911549,72.58312346437346,2266.6666666666665
115.10895655929905,96.05559669258301,72.8531716648155,2300.0
114.78905960755276,96.1740559052203,72.49237936566703,2333.333333333333
114.96795939775393,96.20162285573244,72.77289275576948,2366.6666666666665
114.73125694187338,96.20754658768358,72.61918425274591,2400.0
114.71083240775023,96.2287732938418,72.60199925953351,2433.333333333333
114.97576514871037,96.25851536467975,72.83219178082193,2466.666666666667
114.8072010366531,96.28170122176971,72.63073861532766,2500.0
114.96974815724815,96.32386363636364,72.93777641277644,2533.333333333333
114.54638812366085,96.21250382614019,72.56772268135904,2566.666666666667
114.84980705072027,96.24119428685638,72.70338084036716,2600.0
115.0314081204492,96.30377637911884,72.74720782426263,2633.333333333333
114.48237319926818,96.1883830696616,72.42693295204711,2666.6666666666665
114.68680089485458,96.19135178204776,72.7385614906071,2700.0
114.41790633608817,96.36668197122742,72.42592592592592,2733.333333333333
114.4683105022831,96.18057838660576,72.75847792998478,2766.666666666666
114.00474111980736,96.28324804334738,72.46848284166165,2800.0
113.97093618302229,96.2994130042143,72.45815773630343,2833.333333333333
114.10946630307751,96.18225405292021,72.62480896586855,2866.666666666666
113.21825657894738,95.72848385167464,71.87938098086123,2900.0
113.64929259482241,95.77065021071644,72.11076158940398,2933.333333333333
113.41707943219572,95.64577167019027,71.90958924796134,2966.666666666667
113.57170039263063,95.56629417094534,72.21111446692842,3000.0
113.77660606060606,95.65295454545456,72.28686363636362,3033.333333333333
113.57365296803651,95.55149162861493,71.9995585996956,3066.666666666667
113.82956888257662,95.5760296880011,72.24420824361265,3100.0
113.52752706892076,95.50756708052721,71.9709534063316,3133.333333333333
113.51824961948248,95.45864535768645,72.16993911719939,3166.666666666666
113.1941021059544,95.50185550006873,71.91654067592125,3200.0
113.26995182719156,95.49670154337088,71.8689208677242,3233.333333333333
113.632672072815,95.48407935126221,72.39987171851377,3266.666666666666
112.9046860540967,95.37479330693728,71.84050122119571,3300.0
113.32130898021308,95.51479452054794,72.16429223744292,3333.333333333333
113.02674242424244,95.50046969696967,71.93606060606061,3366.666666666666
113.25505327245052,95.51593607305936,72.15700152207002,3400.0
113.28473363774737,95.50464231354641,72.18829528158295,3433.333333333333
113.106103500761,95.55578386605784,71.88159817351598,3466.666666666667
113.18171945701357,95.64624434389141,72.24736048265459,3500.0
112.88920060331829,95.62274509803923,71.9915233785822,3533.333333333333
113.07012012012012,95.653993993994,72.35156156156155,3566.666666666667
112.69277272727273,95.37828787878787,71.79407575757575,3600.0
112.6711161387632,95.43395173453995,71.88188536953244,3633.333333333334
112.90285774417102,95.18616677440208,72.23511372348581,3666.666666666666
112.32741540265481,95.03561281399858,71.73152838953112,3700.0
112.7165357897916,94.8851555421323,71.97099063726971,3733.333333333334
112.30884873860344,94.82882021875332,71.46397851909161,3766.666666666666
112.68733637747336,94.94167427701672,71.81509893455099,3800.0
112.70339421613394,94.93891933028921,71.79992389649924,3833.333333333334
112.27316666666668,94.91028787878788,71.49601515151517,3866.666666666666
112.54151515151514,94.90975757575757,71.73057575757575,3900.0
112.2448787878788,94.8399393939394,71.43133333333333,3933.333333333333
112.5180303030303,94.8830606060606,71.72236363636364,3966.666666666667
112.35806697108066,94.78835616438356,71.40196347031963,4000.0
112.34442922374427,94.78634703196349,71.37636225266363,4033.333333333333
112.76920036485254,94.86324110671936,71.84028580115536,4066.666666666666
112.46541501976284,94.89706597750076,71.46544542414108,4100.0
112.65913651565823,94.9723624201885,71.90334448160534,4133.333333333334
112.33813300793163,95.09993898718731,71.56070774862721,4166.666666666667
112.37248484848485,94.84266666666666,71.8831212121212,4200.0
112.38490909090908,94.84975757575758,71.87478787878787,4233.333333333333
111.963,94.85342424242424,71.45596969696969,4266.666666666667
112.2030467571644,94.71511312217194,71.86950226244346,4300.0
111.85837640620251,94.70726664639707,71.26093037397385,4333.333333333333
112.21728488902399,94.5905290361812,71.60971419884463,4366.666666666666
111.92057657107992,94.59766625991459,71.14580536912752,4400.0
111.74093949528731,94.53580115536636,71.13190939495288,4433.333333333334
112.06658558832471,94.38574034660992,71.54676193371846,4466.666666666667
111.60819397993308,94.36535421100638,71.00740346609913,4500.0
111.8411067193676,94.2195652173913,71.327044694436,4533.333333333333
111.69688834655277,94.29437156802929,70.95111348383159,4566.666666666666
111.7415171784737,94.15740346609913,71.29563697172392,4600.0
111.74515050167223,94.15924293098206,71.29399513529948,4633.333333333334
111.51483733657646,94.26781696564305,70.95972940103374,4666.666666666667
112.04281204989121,94.27872268701542,71.32725016088995,4700.0
111.58791099708313,94.31230433255449,70.9359967013332,4733.333333333333
112.31522223759669,94.43980136217579,71.52084005965284,4766.666666666667
111.73740085417938,94.43831604636976,71.08749237339842,4800.0
111.72663209273952,94.44612568639414,71.0405735204393,4833.333333333333
111.89525691699605,94.32097902097902,71.40854363028276,4866.666666666666
111.78572523060892,94.4454966136496,70.96124850602187,4900.0
112.10557445374027,94.59227421776838,71.30904661211731,4933.333333333334
111.94729388584446,94.59222030663136,70.96364140139154,4966.666666666667
112.24730620035713,94.60007080844777,71.36982020811526,5000.0
112.2420244552726,94.65290674511968,71.49118935981122,5033.333333333333
111.92468817995156,94.72238055836478,71.13097974318899,5066.666666666666
112.12124127609535,94.51085047571051,71.70939661886655,5100.0
111.95562935288963,94.58053902802764,71.21642605660871,5133.333333333334
112.25909014036868,94.41812339529234,71.58967144811893,5166.666666666667
112.0673824509441,94.51153893619647,71.17120202394176,5200.0
112.0558743675182,94.5033320992225,71.15630013575219,5233.333333333333
112.30834986086128,94.327567916609,71.59016343034608,5266.666666666667
112.12954545454544,94.5186425061425,71.33673218673219,5300.0
112.300382614019,94.29465870829507,71.63668503213958,5333.333333333333
111.93380777471687,94.34626568717478,71.232338536884,5366.666666666666
112.31329966329969,94.2784052647689,71.63478726660546,5400.0
112.34438322620142,94.27508417508415,71.64432200795838,5433.333333333334
111.90039791857971,94.35736149372515,71.18132843587391,5466.666666666667
112.23460361187634,94.28715947352312,71.56404958677686,5500.0
111.96029996939087,94.3868992959902,71.23959289868381,5533.333333333332
112.38694520967249,94.33065503520052,71.73530762167125,5566.666666666666
112.03496621621622,94.50879914004913,71.16586302211302,5600.0
112.02019348894348,94.50815417690416,71.12756449631449,5633.333333333334
112.37853194103194,94.46035012285013,71.59370393120393,5666.666666666668
111.9721916131007,94.52444138353228,71.29946434037343,5700.0
112.33014998469544,94.51499846954391,71.8065809611264,5733.333333333332
112.13266277641277,94.66656941031941,71.36435810810809,5766.666666666668
112.29383226201408,94.53420569329658,71.67185491276399,5800.0
112.50675675675676,94.66357493857494,71.78398341523341,5833.333333333332
112.20505392912172,94.7984899845917,71.29785824345146,5866.666666666666
111.968870523416,94.52112029384756,71.37796143250691,5900.0
111.8215909090909,94.54708230958231,70.95770884520884,5933.333333333334
111.99869471744472,94.47695024570022,71.1915386977887,5966.666666666668
111.5788751079847,94.25154263852896,70.63942367024559,6000.0
111.5551801801802,94.25428853511046,70.64010243119833,6033.333333333332
112.44421587420324,94.28888681097759,71.28818551591941,6066.666666666666
112.0280696816163,94.30410646149996,70.75447238381184,6100.0
112.3025800795316,94.02099445783888,71.03168738453832,6133.333333333334
111.82274477878323,93.9631305382472,70.53859160221687,6166.666666666668
112.21907192284813,93.90169709114821,70.98678648589411,6200.0
112.21766289883207,93.90138397470021,70.99697842627673,6233.333333333332
111.40665526356709,93.69713885865343,70.4123775462603,6266.666666666668
111.6854853706918,93.56304240019837,70.83816327795688,6300.0
111.26421088519713,93.63907141086041,70.37293887924622,6333.333333333332
111.57103762126593,93.63025998185816,70.9490029672678,6366.666666666666
111.0183717414212,93.65275423405262,70.51689803149006,6400.0
111.03683511247536,93.63209175180587,70.53380369878285,6433.333333333334
111.60217278048479,93.73364285495389,71.141537188563,6466.666666666668
111.51306644425912,93.89678126834093,70.6958113242517,6500.0
112.12174617013326,93.97487233777555,71.12784904720388,6533.333333333332
111.3635913772307,93.89871029598244,70.60968669780102,6566.666666666666
112.06931124673059,94.05576659608916,71.05860007472909,6600.0
112.08355648275005,94.05727674679287,71.08853842321585,6633.333333333334
111.8547840349918,94.20465515894712,70.50313207841911,6666.666666666668
112.27701145846306,94.31073296799104,71.0606395566073,6700.0
112.57516371034392,94.53984677983343,70.78065992752241,6733.333333333332
113.28112546988692,94.625300485617,71.12051691592856,6766.666666666668
112.92488262910796,94.62525208524916,70.77595469725571,6800.0
112.89622961134505,94.63377054998949,70.73597599341755,6833.333333333332
112.75995240851502,94.35011897871244,70.84269084828607,6866.666666666666
111.80920740389179,93.8531877867426,70.37093814269896,6900.0
111.85152116402121,93.7568972033258,70.63463718820863,6933.333333333334
111.390736546122,93.57627118644069,70.41566820276499,6966.666666666668
112.15235115661741,93.71271015042349,70.93151940336242,7000.0
112.0136684303351,93.61747291509195,70.93183106575964,7033.333333333332
111.21282219719721,93.4752095845846,70.32354229229229,7066.666666666666
111.8785903250189,93.60805618543716,70.7474647266314,7100.0
111.62646073512528,93.72174077161415,70.35512181312028,7133.333333333334
111.77527508699332,93.49507821561804,70.69702812000376,7166.666666666668
111.21125235404895,93.46608600125549,70.05091023226616,7200.0
111.36829176114892,93.53521038044848,70.11341017888638,7233.333333333332
111.28105944234976,93.3410448571739,70.5842914552592,7266.666666666668
110.3696128113661,93.04168899367698,70.03069644962261,7300.0
110.6711573043982,93.07123045505809,70.61989088359901,7333.333333333332
110.09156611932629,93.08940397350992,70.17516405092383,7366.666666666666
110.59772026734215,93.20795312356942,70.46508682515946,7400.0
110.60451063570056,93.20793786431473,70.49626148258919,7433.333333333334
110.2343398748405,93.24035482107054,70.27940640379124,7466.666666666668
110.74339267270187,93.29078315815056,70.7743787593414,7500.0
110.72118069405664,93.63055751587862,70.32663925623639,7533.333333333332
111.47425231187952,93.82194661800638,70.85405004175301,7566.666666666666
111.27142391658522,94.03844900619093,70.46886685596364,7600.0
111.2817111204208,94.03635432667693,70.45553848779656,7633.333333333334
111.82451029010664,94.13696379866106,70.9849832630796,7666.666666666668
111.43816637738657,94.16171274485495,70.56291842301017,7700.0
111.62884193618143,93.99389923701851,70.99094924782997,7733.333333333332
111.43526841061244,94.03990515745105,70.62799094966527,7766.666666666668
111.7985776872763,94.01386832037515,71.19830618289522,7800.0
111.83594039244724,93.99313525854622,71.22141490805875,7833.333333333332
111.45731519190424,94.04675737381216,70.74529495248673,7866.666666666666
111.8453196347032,94.00897815623844,71.2596106380353,7900.0
111.58509194125631,94.02341725286932,70.85227693446872,7933.333333333334
111.81607980141581,93.98769574944073,71.41883485029571,7966.666666666668
110.90252199945569,93.7890017841483,70.77487979678853,8000.0
111.07128445516469,93.88018628923376,70.83455452904322,8033.333333333332
111.39850993377485,93.8400210716436,71.39086393738711,8066.666666666666
111.01873871161949,93.84477724262493,70.91819686935581,8100.0
111.70704545454544,93.93840909090908,71.47874242424244,8133.333333333332
111.71005186089079,94.1672971323978,71.14254118364856,8166.666666666666
111.99908480780964,94.12408480780964,71.58485356924955,8200.0
112.02359670530814,94.12977425259304,71.61810555216596,8233.333333333332
111.86636532755254,94.30773488307732,71.21236720323479,8266.666666666668
112.2012514797903,94.30795012530173,71.60386206048307,8300.0
111.94815191904232,94.59971615451069,71.157889053437,8333.333333333334
112.00638039450828,94.50405116615164,71.36566579032332,8366.666666666668
112.11350734295941,94.66878008145132,71.31386523509812,8400.0
112.10209181784523,94.67893064297172,71.30954584721708,8433.333333333334
112.63464149080588,94.720736147106,71.91543255584351,8466.666666666666
112.01559866384727,94.57724249946371,71.32591707272226,8500.0
112.73668702949526,94.7967265210416,71.93318832531162,8533.333333333334
112.19808434420307,94.75840597758406,71.42273572867181,8566.666666666666
112.46476946020329,94.66714327444922,71.79086143013083,8600.0
112.334390610156,94.59025160123808,71.80143115442371,8633.333333333332
112.0672939440063,94.64166781975,71.37767323155452,8666.666666666666
112.67379365667036,94.67383993582622,71.89770763914599,8700.0
112.43064778267937,94.70839718288056,71.57534246575342,8733.333333333332
112.502671990172,94.46197788697788,71.8386977886978,8766.666666666668
112.14704430457857,94.4284215722572,71.25936381587067,8800.0
112.14442181907935,94.42675552264593,71.25791373565346,8833.333333333334
112.24374644465969,94.14221361253323,71.47319465584307,8866.666666666668
111.90795320019063,94.20501821871684,71.18017311624618,8900.0
112.53194103194105,94.33148034398035,71.70469901719902,8933.333333333334
112.29465331278892,94.4257781201849,71.2064714946071,8966.666666666666
112.69861465830816,94.36574568531849,71.4321646931352,9000.0
112.7028558161133,94.35794443154556,71.49172664654436,9033.333333333334
112.335562403698,94.4542064714946,71.22662557781202,9066.666666666666
112.8058664190078,94.3845213218791,71.6495782060212,9100.0
112.35876733436056,94.43545454545456,71.3390600924499,9133.333333333332
112.80989214175655,94.40596302003081,71.85117103235747,9166.666666666666
112.15331396153314,94.19268791414908,71.25586150700306,9200.0
112.11806036006948,94.20924619098135,71.19763848530971,9233.333333333332
112.62814698259905,94.32452486733307,71.74973775145008,9266.666666666668
112.27610144390968,94.3683203751697,71.28048253733185,9300.0
112.58830062939651,94.38788103171663,71.65247439220042,9333.333333333334
112.16204664606494,94.40121150623432,71.31406915425181,9366.666666666668
112.57309779684208,94.31695954983627,71.8285903171748,9400.0
112.58238396137942,94.32864412773087,71.8363082883631,9433.333333333334
111.81972664031136,94.23810180503204,71.1937421470381,9466.666666666666
112.10899144984829,94.0323771873372,71.53435383530999,9500.0
111.75849652171249,94.0200269682204,71.1517728540345,9533.333333333334
112.08157413056742,93.88447223917022,71.57629652226967,9566.666666666666
111.82070707070707,94.01470768288952,71.14678604224059,9600.0
111.79880624426079,93.99571472298746,71.14074074074074,9633.333333333332
112.32386363636364,93.91237714987714,71.55248771498772,9666.666666666666
111.99351965601964,93.93707002457,71.18983415233416,9700.0
112.28484336609337,93.89166154791157,71.56291461916463,9733.333333333332
111.96207002457001,93.96256142506142,71.2139742014742,9766.666666666668
112.08050198959292,93.79911233547595,71.5144475053566,9800.0
112.10809611264158,93.80381083562902,71.53004285277012,9833.333333333334
111.89110805019895,93.80494337312521,71.20641261095804,9866.666666666668
112.31874808692992,93.7654269972452,71.65685644322008,9900.0
111.88014998469544,93.83867462503828,71.14084787266606,9933.333333333334
112.21819712274258,93.75153045607591,71.5484695439241,9966.666666666666
111.90465258647076,93.88359351086625,71.28573614937251,10000.0
111.8945056626875,93.89052647689013,71.255019895929,10033.333333333334
112.24395469850016,93.86476890113256,71.58238445056627,10066.666666666666
112.00368839914292,94.00751453933272,71.11632996632997,10100.0
112.51434275184276,93.99450245700243,71.58270884520884,10133.333333333332
112.08483318028772,94.03142026323843,71.33089990817264,10166.666666666666
112.36821242730332,94.02361493725132,71.68752678298135,10200.0
112.3867462503826,94.02913988368536,71.72053872053873,10233.333333333332
111.96077441077442,94.11782981328436,71.23800122436487,10266.666666666668
112.2099632690542,93.94843893480257,71.561753902663,10300.0
111.86576369758188,93.87494643403734,71.23665442301807,10333.333333333334
112.40282555282556,93.74434889434887,71.70546683046682,10366.666666666668
111.79998469543925,93.62340067340068,71.12835935108663,10400.0
111.80809611264156,93.61813590449957,71.12640036730946,10433.333333333334
112.2709613022113,93.5895730958231,71.52845515970515,10466.666666666666
111.93367628992628,93.6084305896806,71.20155098280098,10500.0
112.03820018365472,93.44937251300888,71.53823079277625,10533.333333333334
111.77081420263241,93.50925925925928,71.1780685644322,10566.666666666666
112.1220079583716,93.38849097030916,71.50765228037956,10600.0
112.15218855218856,93.38221610039793,71.51992653810836,10633.333333333332
111.70465222696768,93.39220561317877,71.10257779133619,10666.666666666666
112.14989286807469,93.40483624119987,71.53425160697887,10700.0
111.89172023262932,93.49967860422407,71.23059381695745,10733.333333333332
112.12731864095501,93.50335169880623,71.5610805019896,10766.666666666668
111.9126577802377,93.55990652337685,71.1493319803822,10800.0
111.89680672785695,93.5696692956967,71.13200498132005,10833.333333333334
112.33812366085094,93.5971992653811,71.76074380165291,10866.666666666668
111.91106519742884,93.72015610651975,71.28471074380165,10900.0
112.24250076522804,93.67445668809307,71.7039332721151,10933.333333333334
111.93596571778393,93.85258647076829,71.2726048362412,10966.666666666666
112.2902050811142,93.7867156412611,71.69895928986837,11000.0
112.30078053259872,93.79701561065198,71.7145546372819,11033.333333333336
112.02602893470474,93.9040173423735,71.13630982580754,11066.666666666664
112.2761707988981,93.79655647382921,71.57497704315888,11100.0
111.87214569941843,93.83067033976126,71.09344964799509,11133.333333333332
112.09239363330272,93.60754514845422,71.45826446280992,11166.666666666664
111.95462223587224,93.64712837837835,71.14663697788697,11200.0
111.95638820638821,93.64662162162165,71.1595823095823,11233.333333333332
112.2686425061425,93.40998157248156,71.47275798525799,11266.666666666668
111.89981572481571,93.4051597051597,71.09373464373462,11300.0
112.32274262899263,93.2849047911548,71.55449938574938,11333.333333333336
111.92063124768605,93.275160434407,70.9663859064544,11366.666666666668
112.24614557739555,93.24792690417692,71.4425214987715,11400.0
112.27105343980342,93.24199938574938,71.45999692874693,11433.333333333336
111.96609280513391,93.2639763050722,71.01144637788474,11466.666666666664
112.07413529231712,93.15625956535048,71.42185491276399,11500.0
111.78927150290787,93.25798898071626,70.99588307315581,11533.333333333336
112.13454239363331,93.18663911845732,71.32514539332722,11566.666666666664
111.8140922159187,93.28244392171335,70.98508678873976,11600.0
111.81893516596712,93.26333348707779,70.95687468290208,11633.333333333332
112.05148454239365,93.32274257728805,71.39344964799508,11666.666666666664
111.85405570860115,93.41998775635142,71.05396388123661,11700.0
112.33277027027029,93.42656633906635,71.46489557739558,11733.333333333332
112.05449938574938,93.56746007371008,71.11002764127764,11766.666666666668
112.52453931203932,93.57496928746927,71.65420761670761,11800.0
112.39680134680135,93.50240281603918,71.6844046525865,11833.333333333336
112.09066339066341,93.72671990171992,71.22033169533171,11866.666666666668
112.21343740434652,93.64478114478115,71.5784817875727,11900.0
112.13473587223585,93.82650491400491,71.2488022113022,11933.333333333336
112.4490171990172,93.7867936117936,71.65503685503684,11966.666666666664
112.1648187960688,93.90216523341525,71.34424140049141,12000.0
112.15199631449629,93.90555896805895,71.34929361179361,12033.333333333336
112.37659705159705,93.77678132678128,71.60485257985258,12066.666666666664
111.8960361187634,93.71804407713499,71.18985307621672,12100.0
112.17615549433731,93.53367003367005,71.50229568411388,12133.333333333332
111.98992628992629,93.60786240786241,71.13648648648648,12166.666666666664
112.31278538812786,93.38516598790571,71.39701345180798,12200.0
112.34439405158585,93.39122855732442,71.40255152412686,12233.333333333332
112.01467049241022,93.4550012341108,71.04259224978405,12266.666666666668
112.25777471686564,93.28492500765228,71.53457300275483,12300.0
111.82701254973982,93.31593204775022,71.01372819100092,12333.333333333336
112.12491582491585,93.27098255280072,71.41392715029079,12366.666666666668
111.62127821842589,93.24183953630262,70.96610738255032,12400.0
111.6164124466138,93.2522269676632,70.93770591824283,12433.333333333336
112.0057962172056,93.15061012812693,71.38444173276388,12466.666666666664
111.69158023184868,93.26882245271507,71.00138804148871,12500.0
112.00997559487492,93.22434411226358,71.38111653447224,12533.333333333336
111.70828248932276,93.34522574740696,71.06069249542405,12566.666666666664
112.28562643174514,93.43760281659826,71.43847915994034,12600.0
112.1331709110968,93.3042352364316,71.36284514725261,12633.333333333332
111.8434464159848,93.44149734914652,71.00334038184549,12666.666666666664
112.3658810325477,93.55761573113172,71.50918623064742,12700.0
112.03584328129783,93.73829201101928,71.23400673400674,12733.333333333332
112.30030506406344,93.61735814521047,71.68535692495423,12766.666666666668
111.83766015863331,93.81420073215376,71.20651311775471,12800.0
111.85382855399635,93.81273642464916,71.21255338621108,12833.333333333336
112.2979188473616,93.69496952158116,71.50041561480205,12866.666666666668
112.21780975662254,94.0253832080316,71.38443798717772,12900.0
112.11959562176952,93.82792642140468,71.63160535117056,12933.333333333336
111.8334296138644,93.94486166007904,71.30968379446641,12966.666666666664
112.27443563148262,93.92986577181208,71.66052471018914,13000.0
112.29379194630873,93.9258236729713,71.72652532031726,13033.333333333336
112.14197016031879,93.96697865505207,71.14478114478116,13066.666666666664
112.62605380609968,93.8885755021076,71.5126766674932,13100.0
112.19036159447118,93.8661298284586,71.18884980871283,13133.333333333332
112.33748443337484,93.663899266639,71.42736343649585,13166.666666666664
112.106662959874,93.71609056930158,71.01393136255524,13200.0
112.09826089642605,93.7116115281253,71.05967936243167,13233.333333333332
112.4066233107329,93.64563442645634,71.58619682363974,13266.666666666668
112.00668788340022,93.68651507464293,71.11446274003352,13300.0
112.38748212720816,93.5926079670372,71.49710191719325,13333.333333333336
112.06541826176529,93.71557277493349,71.15163814707194,13366.666666666668
112.34908172635444,93.72704315886135,71.5686409550046,13400.0
112.36908478726662,93.73550658096113,71.58126721763084,13433.333333333336
112.039898989899,93.87730333639423,71.22416590143862,13466.666666666664
112.30904499540866,93.84118457300276,71.6074839302112,13500.0
112.23111810440578,93.9729421202024,71.21488954708133,13533.333333333336
112.638698630137,93.9466092805134,71.56671911637666,13566.666666666664
112.20681702873483,93.98567101763449,71.24220900019986,13600.0
112.20305028980827,93.99346586104578,71.2334609412235,13633.333333333332
112.49604108051595,93.98791568654585,71.60636809495256,13666.666666666664
112.069167356195,93.98194967975238,71.13905488645766,13700.0
112.6297520661157,94.1825221916131,71.92748699112336,13733.333333333332
112.01111958511288,94.24064978645515,71.4770134228188,13766.666666666668
112.29711714460035,94.18863636363636,71.81514643075046,13800.0
112.32975899938988,94.1760067114094,71.85276082977424,13833.333333333336
112.05027427905979,94.26566761668352,71.36364193558273,13866.666666666668
112.52842056932968,94.46974288337923,71.87687480869297,13900.0
112.15820845208543,94.49236921945386,71.46463485642488,13933.333333333336
112.45723001830385,94.53428920073216,71.9267846247712,13966.666666666664
112.07846247712021,94.62400854179377,71.52083587553386,14000.0
112.1413379914805,94.55830345377096,71.44663050473477,14033.333333333336
112.51987492373398,94.51115009151924,71.88525015253204,14066.666666666664
112.00100792596326,94.44822162153908,71.39599273071578,14100.0
112.44791031116536,94.39205308114704,71.79967968273337,14133.333333333332
112.3056167737986,94.50925925925928,71.52162534435261,14166.666666666664
112.64029690847872,94.3807621671258,71.88327211509029,14200.0
112.65189776553413,94.37730333639423,71.89358738904194,14233.333333333332
111.92503050640634,94.2717053081147,71.27402379499696,14266.666666666668
112.42754820936639,94.3216712580349,71.74429139883684,14300.0
112.1337618610346,94.3383226201408,71.45987144168963,14333.333333333336
112.46972757881849,94.24925007652278,71.8632078359351,14366.666666666668
112.14066079362884,94.29428224405392,71.41143551189214,14400.0
112.14081453807482,94.28880894177698,71.43501990990576,14433.333333333336
112.47756351392715,94.20777471686563,71.80716253443526,14466.666666666664
112.36554362581758,94.38775762063429,71.40056152042453,14500.0
112.60735565110564,94.41742936117936,71.76355958230958,14533.333333333336
112.15021426385063,94.43790939700031,71.47929292929294,14566.666666666664
112.49837771655953,94.38448117539026,71.8014998469544,14600.0
112.55624426078973,94.37047750229569,71.86720232629322,14633.333333333332
112.25529537802264,94.4943832262014,71.47289562289562,14666.666666666664
112.68301193755741,94.50128558310377,71.98677685950413,14700.0
112.26323844505664,94.59452096724823,71.53492500765228,14733.333333333332
112.7668764655066,94.6210971245218,71.90836727138097,14766.666666666668
112.55809880981899,94.74886870815772,71.56014443342427,14800.0
112.49264161421695,94.7561242749599,71.58239232383069,14833.333333333336
112.78746928746928,94.7801597051597,72.01683046683047,14866.666666666668
112.11442953020136,94.71787675411836,71.48401464307504,14900.0
112.75831373091648,94.80539028027613,72.005088941162,14933.333333333336
112.50491213504914,94.94182310164044,71.73016312285719,14966.666666666664
112.71735537190085,94.93155800428528,72.06489133761863,15000.0
112.73059381695744,94.95498928680747,72.06992653810836,15033.333333333336
112.50492750949371,95.0747812985256,71.70966898820782,15066.666666666664
112.87022431314672,95.01251479790292,72.0976277231985,15100.0
112.6263974201474,95.2094441031941,71.72817874692875,15133.333333333332
113.05934530420832,95.08084968530174,72.19512834752561,15166.666666666664
112.57369184252748,95.0397229421202,71.64394360113539,15200.0
112.55581266197704,95.050907071455,71.63926940639271,15233.333333333332
112.90301431568555,94.9567598420338,72.05138528939901,15266.666666666668
112.44689803439805,94.96421990171991,71.62030098280098,15300.0
112.78018943601136,94.808635690485,71.87197642848328,15333.333333333336
112.43132678132677,94.87432432432432,71.56185503685505,15366.666666666668
112.72905405405405,94.77506142506142,72.03378378378378,15400.0
112.73287776412776,94.76813574938576,72.06309889434891,15433.333333333336
112.19061830425468,94.6908325681053,71.49967860422406,15466.666666666664
112.3987187309335,94.51583282489322,71.87892007321538,15500.0
112.12175538598265,94.52724403174896,71.42888664153719,15533.333333333336
112.59099365035436,94.51658133849917,71.82705287271497,15566.666666666664
112.31005642421171,94.69172701136169,71.57348215795705,15600.0
112.48346291496976,94.77005430087624,71.55766382821176,15633.333333333332
112.72900214263849,94.66392715029079,72.17130394857669,15666.666666666664
111.92474916387958,94.54134995439344,71.5938887199757,15700.0
112.24432958346,94.50355731225297,71.99738522347218,15733.333333333332
112.14158023184868,94.72858450274558,71.7012812690665,15766.666666666668
112.43552471018913,94.72219341061623,72.01105857230019,15800.0
112.45738255033557,94.73367907260523,72.03886516168394,15833.333333333336
112.04523449550251,94.68554237106949,71.54852552648859,15866.666666666668
112.52518303843807,94.86154667480172,72.16063148261134,15900.0
112.35094888276709,95.06248852157944,71.8063207835935,15933.333333333336
112.40825478868956,94.81375798114928,72.05471267862572,15966.666666666664
112.12391304347824,94.92321374277896,71.7859379750684,16000.0
112.14335664335665,94.91149285497113,71.79154758285193,16033.333333333336
112.61903599755951,95.020317266626,72.24362416107383,16066.666666666664
112.34504270896886,95.13009456985964,71.89257169005491,16100.000000000002
112.7126143990238,95.08619585112874,72.43226052471019,16133.333333333332
112.16615314215986,95.11471934106164,71.86157718120805,16166.666666666668
112.1270751676024,94.81272416350126,72.09520422524554,16200.0
112.12827070627579,94.8133748997412,72.10233205708319,16233.333333333336
111.99083282489323,94.87133923123855,71.58195546064674,16266.666666666664
112.28688224527151,94.682153752288,71.89106162294081,16300.0
111.77490118577074,94.53248707813923,71.42394344785649,16333.333333333332
112.13093418483936,94.37269026468316,71.92590686905068,16366.666666666668
111.97570164734594,94.48341976815132,71.45660463697376,16400.0
111.99963392312384,94.4696461256864,71.45460646735816,16433.333333333332
112.50339761248851,94.47685950413224,72.037802265075,16466.666666666664
112.173063973064,94.4985001530456,71.64098561371289,16500.0
112.53037955310684,94.4110039791858,71.9299816345271,16533.333333333336
112.14926538108357,94.50635139271505,71.58290480563208,16566.666666666668
112.42170564088372,94.32644558215334,71.8090493980905,16600.0
112.61270517092436,94.41058867086264,71.80911390842898,16633.333333333332
112.23586943107493,94.55464025669504,71.40213501172406,16666.666666666668
112.39503097950586,94.38130160047967,71.713066740464,16700.0
112.1951478252848,94.47005826914507,71.4686591946866,16733.333333333336
112.63828211773418,94.46717265210415,71.77937183759101,16766.666666666664
112.190243377458,94.48085112925295,71.2801070061344,16800.0
112.39425212884115,94.62364247809454,71.36181044057757,16833.333333333332
112.44682970181732,94.33394624743342,71.71545462903374,16866.666666666668
112.19147436486776,94.45070638350036,71.29061322055713,16900.0
112.68217948126623,94.54980551327586,71.81441507925527,16933.333333333332
112.16966994575712,94.54581532898165,71.38789801109372,16966.666666666664
112.51002114553646,94.50741626061108,71.83719469216389,17000.0
112.5317642732371,94.51929147130028,71.8572676289418,17033.333333333336
112.17728540345072,94.65198737396952,71.46465017927737,17066.666666666668
112.61128737034777,94.66940207443564,72.13065893837705,17100.0
112.23532836872913,94.72507738040514,71.60611075357787,17133.333333333332
112.43628737034777,94.70321842586945,72.08857535082367,17166.666666666668
112.1690110630995,94.6373693726824,71.54043700775337,17200.0
112.1502712144893,94.6494591033067,71.52649321197634,17233.333333333336
112.55575542333534,94.57904770690159,71.90226465568932,17266.666666666664
112.08593510866238,94.49496479951029,71.50052035506582,17300.0
112.55767813267813,94.4490171990172,71.81400491400491,17333.333333333332
112.22104467481181,94.37392015302973,71.32418548685672,17366.666666666668
112.40839137186173,94.09213904647692,71.66314591885369,17400.0
112.42848577095153,94.08163830081638,71.66245406884677,17433.333333333332
112.0307950125302,94.07095306182065,71.23807327460295,17466.666666666664
112.29829497409406,94.01818796795963,71.59293083037376,17500.0
112.1156978896705,94.13297544119465,71.01541095890411,17533.333333333336
112.47804054054052,94.0992936117936,71.62023955773954,17566.666666666668
111.75199963225157,93.8770647543747,71.00070485121509,17600.0
111.74364867763781,93.88615120590849,71.0117373050167,17633.333333333332
112.38257063882065,94.04417997542996,71.59049447174445,17666.666666666668
112.00179063360882,94.06591674318949,71.09159779614325,17700.0
112.49812653562654,94.08485872235872,71.4836302211302,17733.333333333336
112.24077502159695,94.15756509934592,71.07836603727013,17766.666666666664
112.69881291842304,94.07182928341186,71.52992499380116,17800.0
112.71460451276964,94.07760971981155,71.54509670220679,17833.333333333332
112.28645254843886,94.20484697025793,71.24220967542885,17866.666666666668
112.49840874498408,94.11792199006813,71.61328659502176,17900.0
112.38761467889908,94.28186213736672,71.2573456484007,17933.333333333332
112.48562073332717,94.07463009297872,71.53750038612425,17966.666666666664
112.01117035947412,94.13741534123993,71.23928166467469,18000.0
112.21721015328322,94.26022784926892,71.33135002998017,18033.333333333336
112.38323672971323,94.15861805979256,71.90025930445394,18066.666666666668
112.00236424649175,94.2837553386211,71.51294996949359,18100.0
112.50451239948956,94.29752625186414,71.84799286625771,18133.33333333333
112.08380777471687,94.30817263544536,71.46868686868687,18166.666666666668
112.55772420147423,94.20072174447174,71.82154484029483,18200.0
112.59889434889436,94.19729729729731,71.86234643734645,18233.333333333336
112.2480717018388,94.09905281994324,71.28006602492904,18266.666666666664
112.49560348019251,93.96564543996051,71.57890596075528,18300.0
112.08783783783785,94.03304668304668,71.22211302211302,18333.33333333333
112.45376228501229,93.856464987715,71.63429054054053,18366.666666666668
112.10929054054054,93.89995393120392,71.1623617936118,18400.0
112.12377149877148,93.88132678132679,71.16590909090908,18433.33333333333
112.2900061218243,93.71082032445669,71.55180593816958,18466.666666666664
111.97978260535338,93.73505219623941,71.08362160416955,18500.0
112.43635748658579,93.662100456621,71.65138446873607,18533.333333333336
111.75612147957465,93.59688639637156,71.07325855781313,18566.666666666668
112.27738572944051,93.65030825761421,71.55111234106668,18600.0
112.30247682302479,93.6613317343911,71.5780483680027,18633.33333333333
111.96182525406272,93.77450302107836,71.144289162554,18666.666666666668
112.3133619298003,93.74441523299973,71.48893808711159,18700.0
111.97959811201821,93.88738219331829,71.17426932952047,18733.333333333336
112.3683716925726,93.86873299202068,71.59655919929892,18766.666666666664
112.10416186215271,93.97025044970249,71.33507064557294,18800.0
112.09962640099629,93.96586873299202,71.33797641560199,18833.33333333333
112.46310902018664,93.92933905262673,71.66992604892148,18866.666666666668
112.31314019498951,94.1706929532272,71.35621066271752,18900.0
112.61252005430089,94.13649265704059,71.76184746390226,18933.33333333333
112.33199123781314,94.256556213748,71.39952795261014,18966.666666666664
112.66099349660992,94.08033147302557,71.98327260427719,19000.0
112.70239687591284,94.08788032532324,72.01649677905384,19033.333333333336
112.32191780821918,94.25546094039244,71.39979020116006,19066.666666666668
112.59814266321115,94.0702826113785,71.75783660372701,19100.0
111.8399681284668,93.83200024516563,71.17570714964297,19133.33333333333
112.14450982194843,93.66628359535412,71.52364316141094,19166.666666666668
111.86304434433514,93.64634856424871,71.1441727191934,19200.0
111.88772945971624,93.62619901320828,71.13879439796513,19233.333333333336
112.19486071527076,93.45467500229843,71.4516870460605,19266.666666666664
112.06664821733317,93.6409298464093,71.18893654966716,19300.0
112.55621374799458,93.59595211650007,71.62717512032579,19333.33333333333
111.85342159296371,93.47366001654869,71.05680181422574,19366.666666666668
112.10313812019243,93.3978885109252,71.4268793478594,19400.0
112.13531611044712,93.39641751708498,71.45038460359781,19433.33333333333
111.97592361975923,93.55300339775226,71.01502083237244,19466.666666666664
112.40405577848499,93.50549636394385,71.52117829743399,19500.0
111.93896541169269,93.59155188246098,71.14611264156719,19533.333333333336
112.17785234899328,93.45596212190857,71.49901933743986,19566.666666666668
112.24494014562508,93.76008885597929,71.31090336912256,19600.0
112.2588701715414,93.75337837837841,71.31085708996669,19633.33333333333
112.43489439853077,93.67796143250686,71.73422099785736,19666.666666666668
111.96412446613786,93.65070164734594,71.31269066503965,19700.0
112.20697071384993,93.67647956070776,71.46860890787066,19733.333333333336
112.09044995408631,93.91326905417814,71.11179981634527,19766.666666666664
112.2262812690665,93.79734594264795,71.51659548505187,19800.0
112.23599755948747,93.81740390482,71.51889871873094,19833.33333333333
111.95794691885295,93.97169005491152,71.08996339231237,19866.666666666668
112.29351738865162,93.90687919463087,71.46360585723002,19900.0
112.0572308540958,94.05272593546015,71.10005822683951,19933.33333333333
112.47953020134227,94.12269676632091,71.83056741915803,19966.666666666664
111.90164183642445,94.17640620249315,71.33501064153238,20000.0
112.27298745026016,94.36365166819712,71.447459442914,20033.333333333336
112.61668197122744,94.3486991123355,71.85607591062137,20066.666666666668
112.06239465538904,94.22809598234808,71.35176672489351,20100.0
112.58708854142643,94.17680611287918,71.76355641652445,20133.33333333333
112.17202466060915,94.19290315637348,71.21774825884415,20166.666666666668
112.41827364554638,93.9278389960208,71.67770125497398,20200.0
112.40079583715948,93.93230792776251,71.65055096418733,20233.333333333336
112.2414383561644,93.99813340738001,71.19309206466741,20266.666666666664
112.37851882600741,93.6934950724905,71.41747766861923,20300.0
112.08048521747152,93.78129852559076,71.07535015297573,20333.33333333333
112.36767984256569,93.6912504035792,71.48098949925433,20366.666666666668
111.81971131745884,93.63951457203272,70.96342435107721,20400.0
111.84169961079957,93.62555545340321,70.97814961233183,20433.33333333333
112.2985351353008,93.53960957371824,71.45780086420888,20466.666666666664
111.97859877311932,93.6895284657842,71.07513491075134,20500.0
112.402256968467,93.56022938671343,71.51253785956982,20533.333333333336
112.21663083538084,93.8574785012285,71.2856726044226,20566.666666666668
112.57953844255215,93.78868937430582,71.62063433296309,20600.0
112.58566271751205,93.812739108972,71.64036467974825,20633.33333333333
112.23461989386648,93.94796680241886,71.23113353079107,20666.666666666668
112.44854942115215,93.78168288670572,71.61173377611732,20700.0
112.08919498010408,94.01126415671871,71.30875420875421,20733.333333333336
112.21813612822164,93.80769820109712,71.53049247647942,20766.666666666664
112.30906019656021,94.20918304668304,71.3110257985258,20800.0
112.31282248157248,94.20047604422605,71.31976351351352,20833.33333333333
112.68659755646057,94.11631494508207,71.7128841169937,20866.666666666668
112.43653917679147,94.21080771138115,71.38766117034466,20900.0
112.82400184275184,94.31276105651104,71.99574631449632,20933.33333333333
112.03985661989016,94.23451799877978,71.34122940817572,20966.666666666664
112.55290786654423,94.29435261707992,71.753367003367,21000.0
112.58004285277012,94.3063973063973,71.79621977349252,21033.333333333336
112.04926784624772,94.41812080536913,71.37257474069554,21066.666666666668
112.56230486685033,94.45306091215186,71.78177226813591,21100.0
112.4560042997543,94.69083230958229,71.51104115479116,21133.33333333333
112.59772765708836,94.40828375074949,71.66932644558216,21166.666666666668
112.19411773749674,94.44887228448871,71.31468413203574,21200.0
112.20626354872931,94.43580400658027,71.35265901019326,21233.333333333336
112.48706240487064,94.24325446243256,71.64561905201175,21266.666666666664
112.40349253362952,94.39136739479206,71.29856226089103,21300.0
112.48194271481943,94.18712236520456,71.57363590240303,21333.33333333333
111.9785939750544,94.08806043333028,71.12667402163585,21366.666666666668
112.40081517575311,93.94998620943278,71.64262511109071,21400.0
112.3958812172474,93.95917992093409,71.67832735742087,21433.33333333333
111.87187030737644,94.03128926480952,71.16997640280717,21466.666666666664
112.0966234480231,93.85346894519022,71.5371023655717,21500.0
111.78740397978041,93.96576106046028,71.17479879659749,21533.333333333336
112.33356317612083,93.98453924182526,71.60574300511783,21566.666666666668
112.04785326836443,94.0539057951028,71.21249731850081,21600.0
112.04576936042412,94.0530323925102,71.23710581961937,21633.33333333333
112.31372008213049,94.01149213937668,71.55776715393337,21666.666666666668
111.82338096685923,94.1271511097598,71.30787473396168,21700.0
112.3156192800488,94.1491763270287,71.69039048200122,21733.333333333336
112.07989335294658,94.23250896386871,71.25345530323925,21766.666666666664
112.3566393919892,94.21684900861143,71.60175906346727,21800.0
112.36716619165823,94.22222732983973,71.63848794091508,21833.33333333333
112.13940731206522,94.32941068309276,71.36230884741505,21866.666666666668
112.56190432410898,94.35100058226841,71.86045478226227,21900.0
112.11035518372101,94.49443780454169,71.41223070086725,21933.33333333333
112.45769360424136,94.42337041463641,71.85783457448439,21966.666666666664
112.21930066501179,94.55468726058042,71.53286751861727,22000.0
112.2213232815421,94.5531243296252,71.51952131408783,22033.333333333336
112.56034139315376,94.53898133676566,71.91696546229045,22066.66666666667
112.25746989059485,94.68448714412676,71.51785112316509,22100.0
112.49627654684194,94.6401581318378,71.8290276117802,22133.33333333333
112.19489136097576,94.70854402255523,71.41935582728081,22166.66666666667
112.4694173276388,94.59708663819404,71.78271812080538,22200.0
112.5006282369526,94.55139284729245,71.72360638656492,22233.333333333336
112.14386626214336,94.5592994391836,71.29222212006988,22266.666666666664
112.43599644509821,94.37062915632374,71.62187796880269,22300.0
112.24725181802809,94.40722291407222,71.38143997048107,22333.33333333333
112.48308357083755,94.20543348349727,71.76312402316816,22366.66666666667
112.01532285250221,94.21271183843584,71.33216879654316,22400.0
112.00617510955841,94.20955533082035,71.334451901566,22433.33333333333
112.29361649964756,94.10909870981584,71.69599460635592,22466.666666666664
112.00277608297743,94.23633312995727,71.4564673581452,22500.0
112.38630443443351,94.07307468358307,71.78892770678189,22533.333333333336
112.06772700805979,94.16609972112407,71.44025619809382,22566.66666666667
112.60393893270607,94.23795027904616,71.85189797518565,22600.0
112.62214227511032,94.23109327675535,71.89918976676968,22633.33333333333
112.11907388679475,94.1786491373234,71.47649474426159,22666.66666666667
112.64351086623816,94.33867462503828,71.94418426691155,22700.0
112.13946860347522,94.34298673040972,71.42844227881461,22733.333333333336
112.413808954675,94.28805430418929,71.80975146333242,22766.666666666664
112.13346204529437,94.40528944868376,71.50349361037051,22800.0
112.13677178143485,94.40145873555821,71.48001900033711,22833.33333333333
112.57829977628636,94.40783304219912,72.02413349269098,22866.66666666667
112.3090570853128,94.63348861522378,71.59353043371307,22900.0
112.49957096012993,94.50101130826515,71.8924029297294,22933.33333333333
112.38348477161264,94.67197085005304,71.57157572682686,22966.666666666664
112.5565413257332,94.61423186540407,71.91060647850203,23000.0
112.57482148876836,94.62137231467008,71.92602126811927,23033.333333333336
112.19298352654056,94.78444173276388,71.55503355704698,23066.66666666667
112.534568355245,94.6854524838344,71.8213508626766,23100.0
112.27305323158959,94.82833808341759,71.41598479973031,23133.33333333333
112.60230323367908,94.8185936546675,71.85120500305064,23166.66666666667
112.24551555826723,94.91485661989016,71.49356314826113,23200.0
112.44325068870523,95.05381083562902,71.56112641567188,23233.333333333336
112.75292317110501,94.87572696663608,72.00642791551883,23266.666666666664
112.53355343980343,94.9719441031941,71.60105958230956,23300.0
112.7303948576676,94.65531068258345,72.04603611876341,23333.33333333333
112.22692072237528,94.54932659932659,71.47249770431587,23366.66666666667
112.35761134838316,94.27320012202564,71.68820927394755,23400.0
112.3837095790116,94.26513117754729,71.70021354484442,23433.33333333333
111.91406667582964,94.21806325499,71.24746109558498,23466.666666666664
112.15531222797449,94.08416181793191,71.61677433148547,23500.0
112.19322601971004,94.28298202727429,71.37221530372216,23533.333333333336
112.351659464926,94.10523735098526,71.60747448745059,23566.66666666667
112.02644724341884,94.1903711194876,71.21042873341302,23600.0
112.03204008458216,94.17848058594588,71.18995740247004,23633.33333333333
112.17750187077169,94.03286449504436,71.50869717933445,23666.66666666667
112.06473905182187,94.17098771107227,71.26982010971163,23700.0
112.54022038567491,94.27649219467402,71.80339761248852,23733.333333333336
112.27598665498208,94.3106714019956,71.40474762849193,23766.666666666664
112.6425160697888,94.32653810835629,71.97583409856138,23800.0
112.68048668503216,94.33778696051424,72.04644934190391,23833.33333333333
112.28118857493857,94.56696867321872,71.50889127764128,23866.66666666667
112.53826140189777,94.38784817875728,71.92549739822469,23900.0
112.19054178145088,94.52231404958677,71.54739822467096,23933.33333333333
112.52425772880319,94.48290480563207,71.8720079583716,23966.666666666664
112.27122742577288,94.6164677073768,71.5352923171105,24000.0
112.28501683501685,94.61430976430977,71.55627486991123,24033.333333333336
112.6383991429446,94.5691613100704,71.96435567799205,24066.66666666667
112.32026323844507,94.6994796449342,71.63322620140801,24100.0
112.61446280991736,94.67655341291706,71.99005203550658,24133.33333333333
112.41102040188801,94.72186092277416,71.61854465507433,24166.66666666667
112.6613009855019,94.74315452854263,71.89445443783343,24200.0
112.68208723459864,94.74607567301632,71.92452685146749,24233.333333333336
112.3226788432268,94.78591085897024,71.53904340205709,24266.666666666664
112.72259889611489,94.60544562827671,71.98441031317743,24300.0
112.28061436280615,94.51888750518887,71.37896468490077,24333.33333333333
112.5577694755777,94.38274679827192,71.77353443106868,24366.66666666667
112.22391341112802,94.38815860277047,71.30330704303307,24400.0
112.22807988561415,94.37270728594929,71.31940408652737,24433.33333333333
112.54268714542688,94.26702335378134,71.75805236535831,24466.666666666664
111.91570073761856,94.1111467448573,71.23458713214521,24500.0
112.37456712941679,94.07056173577273,71.62524899635316,24533.333333333336
112.23950309795059,94.26631612932985,71.3278139077226,24566.66666666667
112.23979560707748,94.03241305674193,71.66715985356925,24600.0
112.47482399755128,94.14895928986843,71.81063666972759,24633.33333333333
112.18947465522808,94.2266500622665,71.34011346340114,24666.66666666667
112.21392617449663,94.0386668700427,71.716519219036,24700.0
112.1580339160248,94.22074627554079,71.12762326460957,24733.333333333336
112.72807586569056,94.17085225342107,71.66845828313718,24766.666666666664
112.01371395298948,94.21965309061936,71.32841469768012,24800.0
112.00154760810273,94.23816309644205,71.33875762311912,24833.33333333333
112.49418077271959,94.28084497947512,71.73772734959951,24866.66666666667
112.04659679445926,94.25884894732005,71.3160185100058,24900.0
112.39548282308235,94.23716711102942,71.69694462321105,24933.33333333333
112.03486882245272,94.41619890176938,71.40980780964003,24966.666666666664
112.72232215611211,94.53078732530788,71.8802484510247,25000.0
112.71360484602494,94.52686684193532,71.87162338760513,25033.333333333336
112.47699214365879,94.62278800178343,71.61081130944143,25066.66666666667
112.64392408937864,94.58285889194981,71.9582797673707,25100.0
112.4185644322008,94.70105601469238,71.64978573614938,25133.33333333333
112.686975818794,94.65400979491888,71.97081420263238,25166.66666666667
112.37101316192222,94.80737679828587,71.59874502601775,25200.0
112.35867768595041,94.80024487297214,71.63085399449038,25233.333333333336
112.83234168165676,94.74695201635842,72.10170195101702,25266.666666666664
112.2586470768289,94.83094582185491,71.56382001836549,25300.0
112.57214569941843,94.5878787878788,71.93333333333334,25333.33333333333
112.27075298438936,94.53830731558004,71.59471992653809,25366.66666666667
112.64312839198685,94.33130390664637,71.81446120258906,25400.0
112.63863905416416,94.32761403994282,71.80806543363622,25433.33333333333
111.6983722447246,94.02126852652498,71.17585218222365,25466.666666666664
111.81206202812064,93.77388971773891,71.36302123363022,25500.0
111.35128274453257,93.70792778178324,70.87952114876231,25533.333333333336
111.54802631578949,93.47114234449758,71.23062200956937,25566.66666666667
111.497973933291,93.61249206205208,70.88809761407965,25600.0
111.50122471196586,93.60570322658684,70.8883697722943,25633.33333333333
112.09995433789952,93.69590563165907,71.3441095890411,25666.66666666667
112.0121714695866,93.87686504482215,71.07947343504223,25700.0
112.35810387746064,93.81193017821964,71.57543409538646,25733.333333333336
111.90985171271058,93.91257005849023,71.16336036407506,25766.666666666664
112.25949512072205,93.866434538263,71.61706449199005,25800.0
112.4241365572615,93.93247218902269,71.6812999908063,25833.33333333333
112.22547872667938,94.03307985961456,71.20411304722614,25866.66666666667
112.25219529329121,93.93433209633328,71.6899405934546,25900.0
111.97852812266157,94.078526595501,71.26696293581344,25933.33333333333
112.21985405898451,94.09078747339615,71.83358163575555,25966.666666666664
111.98444816053512,94.17219519610822,71.52079659470965,26000.0
112.31942148760332,94.38189470462198,71.63564432200795,26033.333333333336
112.49321197634151,94.2800098066256,71.71715546566149,26066.66666666667
112.1951978180258,94.42720112776196,71.39486990898227,26100.0
112.53476755232754,94.35161349636849,71.70705770586251,26133.33333333333
112.19400549115316,94.48567724222087,71.47045454545454,26166.66666666667
112.65009151921906,94.48721781574127,72.00445393532642,26200.0
112.8923630241812,94.6194214876033,72.14773492500765,26233.333333333336
112.48872284488723,94.6757529634242,71.64176006641759,26266.666666666664
112.70575451484542,94.6756351392715,72.04325068870523,26300.0
112.05902475527252,94.50636062369236,71.38678395259694,26333.33333333333
112.65145107413194,94.47208176274096,71.86584842634305,26366.66666666667
112.46501545131686,94.51304521624157,71.44865704226434,26400.0
112.26595875088108,94.37876559100242,71.33371640464587,26433.33333333333
112.79294473789888,94.30950174528157,71.71210576715164,26466.666666666664
112.39821765051123,94.33761158990518,71.23335804528465,26500.0
112.4580844775568,94.1077981651376,71.52669170617574,26533.333333333336
112.18805736875977,94.19011063099506,71.25255125494162,26566.66666666667
112.4855658729429,94.07724249946371,71.61558027642424,26600.0
112.73752818706949,94.14958453031849,71.68016557007384,26633.33333333333
111.9896443803504,94.0368046393176,71.10671657819644,26666.66666666667
112.4227240649259,93.94526096161516,71.60676260317265,26700.0
112.26833018157221,94.23235398121244,71.40365604292545,26733.333333333336
112.63614839413928,94.12527097458604,71.77049029103824,26766.666666666664
112.04222978149612,94.0987251386718,71.25132542674146,26800.0
112.03508933223007,94.10865434709324,71.2447978915755,26833.33333333333
112.35651311775473,94.0883923123856,71.72094264795606,26866.66666666667
112.07508197726088,94.1413686371855,71.32367993625694,26900.0
112.59216406489134,94.2767982858892,71.77805325987144,26933.33333333333
112.11147040878583,94.25933496034168,71.35482001220255,26966.666666666664
112.46811314394287,94.17883301155344,71.6006864637921,27000.0
112.44380719951192,94.24923733984137,71.69981696156192,27033.333333333336
112.50734295939777,94.56247686042208,71.33086511168703,27066.66666666667
112.44159548505186,94.36505491153143,71.690283709579,27100.0
112.15064063453323,94.46305674191579,71.30338621110434,27133.33333333333
112.6310257117465,94.49187888817382,71.83017682571788,27166.66666666667
112.54825373318523,94.87446007651488,71.14849438479575,27200.0
112.58117363939282,94.84740219671728,71.17687893372825,27233.333333333336
112.83395270270269,94.77308046683045,71.65115171990172,27266.666666666664
112.41935335086019,94.77999169779993,71.23110865119997,27300.0
112.86600641737628,94.70165370850306,71.61329137356535,27333.33333333333
112.51664506972729,94.72740034555105,71.17445699123782,27366.66666666667
112.74403087188476,94.5042356594868,71.7861568500838,27400.0
112.92635443662842,94.58521535233864,71.82043687523141,27433.33333333333
112.53909046032335,94.53961495742321,71.37032580525731,27466.666666666664
113.15794443154554,94.58141010757679,71.88928101540128,27500.0
112.80684157572945,94.64211748316694,71.47084590975929,27533.333333333336
113.29537961458092,94.6700255398189,72.0514356473957,27566.66666666667
112.96221654670693,94.68250135438431,71.62499806516523,27600.0
112.95912081108273,94.68287284265922,71.63722622088073,27633.33333333333
113.16801289926286,94.61368243243244,72.20152027027027,27666.66666666667
112.70367456497593,94.59046032333704,71.64167592249784,27700.0
113.18519260400616,94.66702619414484,72.1308782742681,27733.333333333336
112.91067254856436,94.79130098289606,71.72663106570698,27766.666666666664
113.45073910688026,94.84125067719215,72.1540592833372,27800.0
113.40807395993835,94.83796610169493,72.20958397534669,27833.33333333333
112.95320945945946,94.9076474201474,71.81607800982799,27866.66666666667
113.275691031941,94.9618703931204,72.26881142506143,27900.0
113.2477981580373,95.20651652348889,71.9951861311044,27933.33333333333
113.58366718027737,95.20204930662555,72.42899845916794,27966.666666666664
113.06174754299757,95.19846437346438,72.02487714987714,28000.0
113.09689803439804,95.18650184275185,72.02633599508599,28033.333333333336
113.27981328435871,95.20702479338844,72.31270278543006,28066.66666666667
112.96742155189644,95.15683470934613,71.79936349799364,28100.0
113.3642052180865,95.10382362437157,72.38946543056132,28133.33333333333
112.72310988674627,95.0400061218243,71.83186409550045,28166.66666666667
113.19042787079316,94.89456205894562,72.24576049690205,28200.0
113.22040803775965,94.8811247943668,72.24702120135909,28233.333333333336
112.86987613134407,94.81025854879069,71.68686868686869,28266.666666666664
113.1434128192119,94.704687668158,72.13786264471196,28300.0
112.73191580954138,94.74327752409944,71.60616822717279,28333.33333333333
112.94862258953172,94.61443220079585,72.03414447505355,28366.66666666667
112.59409928816322,94.62537090847592,71.54191842319696,28400.0
112.41764795607078,94.58335875533865,71.61291946308725,28433.33333333333
112.54408634843418,94.38476740650654,71.92900577683186,28466.666666666664
112.34792556436851,94.49240390482001,71.55288285539963,28500.0
112.91790633608817,94.54364860728498,72.05515763697579,28533.333333333336
112.56519742883378,94.57845117845116,71.60456075910622,28566.66666666667
112.86704180311486,94.51124640622358,71.82800608828006,28600.0
112.73526707731912,94.45095154914036,71.83469706720605,28633.33333333333
112.5586150700306,94.65851821102964,71.43972448995281,28666.66666666667
112.8633519364113,94.59749704041941,71.8090955214243,28700.0
111.9925912486014,94.4541413408328,71.35501527109982,28733.333333333336
112.31918260319185,94.42554666425544,71.73567219735672,28766.666666666664
111.80951093487144,94.39613374188896,71.32088139870223,28800.0
111.99998486087141,94.41506948860024,71.26788688043115,28833.33333333333
112.26298043484834,94.46362151864284,71.59546705373613,28866.66666666667
112.25602739726028,94.59273972602742,71.31876712328767,28900.0
113.09192845890095,94.76804744694654,71.81200383035247,28933.33333333333
112.64927816982613,94.80416032470829,71.38429961717631,28966.666666666664
112.61738865161684,94.6032946918853,71.72071384990849,29000.0
112.63282489322758,94.59621720561321,71.69871873093348,29033.333333333336
112.44424548515457,94.58902662993572,71.38400673400673,29066.66666666667
113.0418611793612,94.59198402948402,72.0169226044226,29100.0
112.58700481303221,94.58743675182032,71.49355177094905,29133.33333333333
112.78232861337885,94.39686053841305,71.76003566871147,29166.66666666667
112.33314967860424,94.51659014386287,71.35457606366697,29200.0
112.3587235996327,94.49802571166208,71.35731558004284,29233.333333333336
112.82537911214382,94.58696649137826,71.90526782438548,29266.666666666664
112.80456086286594,94.68807395993835,71.45248073959937,29300.0
112.74193449647996,94.44536271809,71.67970615243344,29333.33333333333
112.58923525798521,94.66343673218672,71.36478808353809,29366.66666666667
112.9508753071253,94.65161240786242,71.79749692874692,29400.0
112.98077395577394,94.65632678132678,71.81265356265357,29433.33333333333
112.66231572481571,94.78003685503685,71.44247542997543,29466.666666666664
112.98261670761671,94.7595515970516,71.79769656019656,29500.0
112.25296850800207,94.66140787755474,71.3004342676668,29533.333333333336
112.85612182430364,94.7847719620447,71.90364248546071,29566.66666666667
112.60560503685505,94.9900337837838,71.60766277641278,29600.0
112.22364246491765,94.79842892007322,71.50509456985965,29633.33333333333
112.60407239819004,94.75638494943668,71.94510917428407,29666.66666666667
112.49285277012552,94.8928527701255,71.52523722069176,29700.0
112.60390537216436,94.75775152601051,71.89504691912903,29733.333333333336
112.67503071253073,94.96609336609338,71.64305896805897,29766.666666666664
112.8971046838694,94.80694325547267,71.96644551791611,29800.0
112.776048362412,94.67623201714113,71.83321089684726,29833.33333333333
112.38647076828896,94.79934190388737,71.42177838996021,29866.66666666667
112.86984029484027,94.70626535626535,71.80239557739556,29900.0
112.37516069788799,94.70174471992657,71.35901438628711,29933.33333333333
112.64122370004722,94.58313146548441,71.80032603562016,29966.666666666664
112.4752855803084,94.57820211244871,71.35290500130681,30000.0
112.44736558891807,94.58982519256493,71.32885936995527,30033.333333333336
112.7427139836352,94.38386810088566,71.77898317550796,30066.66666666667
112.206360585723,94.41237034777306,71.37509151921904,30100.0
112.48355704697987,94.37178157413055,71.76089078706528,30133.33333333333
112.22454240390482,94.50001525320316,71.34345637583894,30166.66666666667
112.70583103764922,94.52695133149679,71.77001836547291,30200.0
112.56432275777914,94.45907565588772,71.75980780964002,30233.333333333336
112.25735673722252,94.61497464241243,71.53056576270156,30266.666666666664
112.44080267558529,94.4714502888416,71.7975980541198,30300.0
112.23682123245882,94.65838926174496,71.35692495424041,30333.33333333333
112.53525015253204,94.63006406345332,71.72481696156194,30366.66666666667
112.28834655277608,94.72525930445394,71.41935631482613,30400.0
112.26377364246493,94.7530658938377,71.37132397803539,30433.33333333333
112.55507931665647,94.67219341061623,71.73482306284319,30466.666666666664
112.28971934106166,94.76564978645516,71.43448749237339,30500.0
112.61627516778522,94.62048505186092,71.88955155582673,30533.333333333336
112.17777608297743,94.5812538133008,71.46243136058574,30566.66666666667
112.47442037827943,94.45227272727271,71.75660463697376,30600.0
112.50620805369127,94.43689749847469,71.80346247712019,30633.33333333333
112.0889414276998,94.49696461256865,71.39649176327029,30666.66666666667
112.44234289200732,94.35939597315435,71.77368822452716,30700.0
112.10237949969492,94.40283709579012,71.38206223306895,30733.333333333336
112.4263880414887,94.3096095179988,71.73534167175106,30766.666666666664
112.10520670528022,94.38893996506391,71.29665042444302,30800.0
112.10319941160246,94.37219208727896,71.29890288376085,30833.33333333333
112.52790291440657,94.26939106984156,71.7269467684104,30866.66666666667
112.42502652091692,94.4719493258306,71.42727118982828,30900.0
112.86374385749386,94.45434582309582,71.80385442260442,30933.33333333333
112.33086929905113,94.41547291092743,71.35428527701255,30966.666666666664
112.76011631466177,94.36948270584637,71.87318640955004,31000.0
112.78631772268135,94.37223752678301,71.88423630241813,31033.333333333336
112.54180550413427,94.60517709490313,71.46455016660497,31066.66666666667
112.55045913682278,94.48256810529541,71.76261095806552,31100.0
112.35677936134556,94.67487662008207,71.4101901818797,31133.33333333333
112.68235384144477,94.63965411692685,71.83396082032445,31166.66666666667
112.18219951189751,94.5957443563148,71.37213239780354,31200.0
112.38650137741048,94.72341597796145,71.45524946434037,31233.333333333336
112.56098230628432,94.5384990848078,71.84838316046371,31266.666666666664
112.41865625956535,94.82704315886136,71.54871441689623,31300.0
112.52777608297743,94.6789658328249,71.88808724832215,31333.33333333333
112.09609303739737,94.74194283976892,71.49553055640013,31366.66666666667
112.56987492373399,94.77222391702257,71.86542098840756,31400.0
112.60855704697987,94.76978340451497,71.91115009151922,31433.33333333333
112.30750457596096,94.89301403294694,71.54490543014032,31466.666666666664
112.76459731543623,94.8266168395363,72.07615924344113,31500.0
112.32703564095492,94.86664521467316,71.49541846710183,31533.333333333336
112.54442094940391,94.69982531948149,71.88920045355644,31566.66666666667
112.2803183348638,94.75870829507194,71.47566574839303,31600.0
112.34454130344541,94.75540796088741,71.41017480743507,31633.33333333333
112.54521773773405,94.44339738285679,71.6434525451258,31666.66666666667
112.1013606693022,94.4220220036162,71.23266219239373,31700.0
112.41649045386288,94.2850357022463,71.56023413318624,31733.333333333336
112.0882289847078,94.28701235021911,71.19872207410131,31766.666666666664
112.4331463945328,94.12698047868591,71.57345775489566,31800.0
112.44358125708679,94.13686371854985,71.57635377401857,31833.33333333333
112.03261134838316,94.18871262965223,71.2571384990848,31866.66666666667
112.56682502344604,94.23017081007949,71.56925418569254,31900.0
112.40176597051595,94.3249232186732,71.30047604422604,31933.33333333333
112.84775798525801,94.26569410319412,71.75482186732187,31966.666666666664
111.95379804758998,94.15938071995122,71.29342586943258,32000.0
111.94913056741915,94.16182123245882,71.3296369737645,32033.33333333333
112.6249404240272,94.17977338068664,71.70694771151392,32066.66666666667
112.25407807142969,94.31783589317837,71.382054948265,32100.0
112.61219500945528,94.29940193410513,71.72439770613286,32133.33333333333
112.11311775472849,94.28197071384993,71.34542403904821,32166.666666666664
112.29753669003223,94.17107252485457,71.62376872680625,32200.000000000004
112.32546845649885,94.16668957407492,71.63871962859456,32233.333333333336
112.35664099134421,94.47081161693032,71.39719877619422,32266.666666666664
112.47553386211105,94.32811165344722,71.74786455155582,32300.0
112.23188072691612,94.39238760687692,71.34589807238515,32333.333333333336
112.54219913579115,94.379148662315,71.73073151297845,32366.66666666667
112.26772087891882,94.49129661977871,71.38297937544053,32400.0
112.26179093500046,94.49327326775152,71.37772363703228,32433.33333333333
112.72129263583707,94.47065673745823,71.90852257056173,32466.66666666667
112.25970702706016,94.62834421255863,71.39228034690937,32500.0
112.58806043333028,94.58721767644265,71.77817106432533,32533.33333333333
112.15544967242408,94.656220888502,71.4707014248408,32566.66666666667
112.65184946829704,94.66194722809598,71.80782078391714,32600.0
112.68891544849993,94.68114676228126,71.82567190708221,32633.33333333333
112.62655806491422,94.96905467110949,71.58947303467852,32666.666666666664
112.96612365790449,94.83882512649636,71.88800444279897,32700.000000000004
112.4667527635564,94.72947127285029,71.47308703473087,32733.333333333336
112.7053948926095,94.53049521086052,71.69912211921344,32766.666666666664
112.32825976661593,94.5221622618883,71.28641052841968,32800.0
112.30364248546068,94.56060606060606,71.34106213651668,32833.333333333336
112.64641852313083,94.37727349599496,71.52671309748935,32866.666666666664
112.2648248082038,94.39842873176208,71.18647663853143,32900.0
112.77814676444815,94.25818304813738,71.74435373522131,32933.33333333333
112.38190120381901,94.27612502498349,71.2810140983657,32966.66666666667
112.8117363939282,94.2736640750339,71.72457731704307,33000.0
112.63457300275482,94.24077134986229,71.84344964799509,33033.33333333333
112.53231827718128,94.37043378995436,71.36707083796125,33066.66666666667
112.92510489941998,94.28429285449828,71.68760027150438,33100.0
112.53290447982228,94.44312291743799,71.33594039244723,33133.333333333336
112.84050982800983,94.41243857493858,71.76931818181819,33166.666666666664
112.41200436634227,94.40560859738943,71.25773718924405,33200.0
112.59235776872765,94.45774713069237,71.30542700234481,33233.333333333336
112.90444896951746,94.4304270023448,71.71516722201655,33266.666666666664
112.41334557698194,94.5059381695745,71.38775635139272,33300.0
112.56003660768762,94.37663209273948,71.73695851128737,33333.333333333336
112.41649045386288,94.48584168428795,71.48613281848549,33366.666666666664
112.65257779133621,94.48229103111652,71.79984746796828,33400.0
112.6688529591214,94.4888346552776,71.78436546674801,33433.33333333333
112.05193067801764,94.55144420796594,71.33180297962906,33466.66666666667
112.59879499694937,94.56481086028064,71.81932580841976,33500.0
112.33708053691277,94.67280353874314,71.55196766320927,33533.33333333333
112.70026968220405,94.58461279151727,71.84773681468542,33566.66666666667
112.32097315436243,94.73445698596706,71.58479255643684,33600.0
112.31168395363024,94.74142769981695,71.57431360585724,33633.333333333336
112.62057552633999,94.55422757500536,71.74196316386258,33666.666666666664
112.10913089293078,94.49147080832607,71.29813228264688,33700.0
112.54745487419935,94.39526830314732,71.59028224694309,33733.333333333336
112.02808448252165,94.31607641911394,71.20622776072449,33766.666666666664
112.44460036607687,94.29255643685171,71.6346552776083,33800.0
112.46031116534472,94.27895057962172,71.63544844417328,33833.333333333336
112.18587553386213,94.23941427699819,71.27382550335571,33866.666666666664
112.58265146639698,94.0819312923294,71.61634641904936,33900.0
111.94854996105741,94.00682640766024,71.06666055802447,33933.33333333333
112.4502313750728,94.0392418252582,71.4877263951457,33966.66666666667
112.16498115289144,94.13157733443659,71.20958597652539,34000.0
112.12543287058321,94.14078636879042,71.17993625693359,34033.33333333333
112.42686402500686,94.04026845637584,71.51129294229412,34066.66666666667
112.3379149178236,94.24154789908216,71.16256937718126,34100.0
112.43213508626766,94.1054365480678,71.51328491311942,34133.333333333336
112.29404652586472,94.34605142332417,71.33552188552189,34166.666666666664
112.43915497254423,94.2178615009152,71.68366381940207,34200.0
112.47208663819404,94.22141549725443,71.75350823672972,34233.333333333336
112.20923355091783,94.32073794857651,71.28506634795133,34266.666666666664
112.6348415663484,94.37070860815152,71.63185892409635,34300.0
112.26010542122522,94.38371487236066,71.29065918911466,34333.333333333336
112.69300665011801,94.41057583279705,71.82729612944745,34366.666666666664
112.28511231650884,94.52627869204132,71.35762005454936,34400.0
112.28212436027091,94.53882810824064,71.34408997578991,34433.33333333333
112.60965033250591,94.51806564310013,71.7944439336827,34466.66666666667
112.40043716519918,94.64697370851549,71.35137922541716,34500.0
112.62526431920568,94.60258649750236,71.80679415279948,34533.33333333333
112.30103276025864,94.73359688639636,71.368928319696,34566.66666666667
112.68470166406178,94.58718703073765,71.82864454046765,34600.0
112.70327296129447,94.59481781128376,71.81948147467132,34633.333333333336
112.1045494112796,94.49906079626152,71.23820650264962,34666.666666666664
112.34868129686474,94.33034009865456,71.51150715474719,34700.0
112.22429591492752,94.38814317673378,71.24571726272562,34733.333333333336
112.18538812785387,93.98818873668188,71.47217656012177,34766.666666666664
111.98692750568868,94.10910034971977,71.14912722774545,34800.0
111.79237442922373,93.98570776255708,71.06243531202435,34833.333333333336
112.41730009121315,94.06114320462143,71.70410459106111,34866.666666666664
112.07644905430142,94.17641854789505,71.24835265405736,34900.0
112.22879294618423,94.00364852538765,71.53946488294315,34933.33333333333
112.05654362416107,94.19162599145821,71.24678157413057,34966.66666666667
112.50262020777788,94.08479666574728,71.62638288743833,35000.0
112.52779565443905,94.08672734516256,71.6337838251969,35033.33333333333
112.04523449550251,94.0817336326568,71.23626700875063,35066.66666666667
112.50717109497104,94.11268425730137,71.62311911985535,35100.0
112.35252064019188,94.2877019817659,71.25736820257369,35133.333333333336
112.50852654057353,94.22454240390482,71.69681208053692,35166.666666666664
112.17216290420988,94.31192800488104,71.33105552165955,35200.0
112.17922513727885,94.31378889566808,71.31792251372788,35233.333333333336
112.53293166564976,94.26941732763879,71.71256863941426,35266.666666666664
112.22273298397228,94.36120560203487,71.2613925408354,35300.0
112.62250620575527,94.41072906132206,71.53403205540744,35333.333333333336
112.26746250382614,94.70192837465565,71.18305785123967,35366.666666666664
112.63327211509028,94.63872053872056,71.72725742271197,35400.0
112.65244872972146,94.63849097030916,71.7714876033058,35433.33333333333
112.63467234357643,94.82296680241886,71.41173022337406,35466.66666666667
112.81566040926771,94.70650185262058,71.7538090186492,35500.0
112.55420260443093,94.80233076580109,71.33248773888043,35533.33333333333
112.80423936333028,94.75910621365169,71.80030609121519,35566.66666666667
112.53906633906635,94.89379606879606,71.43224815724815,35600.0
112.52596744471745,94.89086302211302,71.41724508599508,35633.333333333336
112.87427825552824,94.71518734643736,71.87670454545454,35666.666666666664
112.51997850122852,94.71061117936121,71.40953624078624,35700.0
112.75340909090907,94.57625921375922,71.75660319410318,35733.333333333336
112.43367628992628,94.5601812039312,71.37000921375922,35766.666666666664
112.48107077486273,94.25350823672972,71.60837400854179,35800.0
112.49456985967052,94.26940207443563,71.62353569249542,35833.333333333336
112.02803538743136,94.27802013422821,71.12225442342894,35866.666666666664
112.44479176243448,94.07017866446016,71.4545064509209,35900.0
112.12111043319095,94.2388499084808,71.16215680292864,35933.33333333333
112.66810529537806,94.29853076216713,71.69779614325068,35966.66666666667
112.32572696663605,94.3858585858586,71.31734006734006,36000.0
112.507156019656,94.4465909090909,71.35322481572481,36033.33333333333
112.84242936117936,94.3927671990172,71.65677211302211,36066.66666666667
112.3604530149985,94.4197275788185,71.39782675237221,36100.0
112.50541488712628,94.25263880414889,71.71920378279437,36133.333333333336
112.16000610128128,94.40051860890787,71.30317266625991,36166.66666666666
112.8509811181044,94.51946809823522,71.74176231025547,36200.0
112.9054054054054,94.51011970874984,71.78643712205357,36233.333333333336
112.42593361314823,94.58170748581708,71.341266546746,36266.66666666666
112.64850908645157,94.44704422175232,71.72945971622077,36300.0
112.23889859336214,94.55114768165241,71.33822132328154,36333.333333333336
112.73954153406208,94.63933090417109,71.83163445720524,36366.66666666666
112.51728856295068,94.74587580523657,71.48749288931937,36400.0
112.49164398936087,94.7563304275633,71.49684055163506,36433.33333333333
112.94566827101076,94.77977292360858,71.82401579661855,36466.66666666667
112.47257967805912,94.73615915625048,71.3812247282567,36500.0
112.61671416750944,94.42018326131591,71.69489136097576,36533.33333333333
112.10681818181818,94.44366992068336,71.1760677242221,36566.66666666667
112.39037522879805,94.28195546064674,71.52643380109824,36600.0
112.43009456985969,94.26572605247101,71.55517083587553,36633.333333333336
112.25791245791248,94.39709213345577,71.26740128558309,36666.66666666666
112.52102846648302,94.26801346801346,71.47692072237527,36700.0
112.29408237627415,94.27386498162754,71.16676660055657,36733.333333333336
112.72998163452708,94.27255892255891,71.80791245791247,36766.66666666666
112.420845053198,94.38397333985573,71.42983367983369,36800.0
112.42567567567568,94.3816803228568,71.40048306224776,36833.333333333336
112.624464859759,94.21702698173289,71.75370598900011,36866.66666666666
112.33572084481176,94.28696051423323,71.28331802877257,36900.0
112.45718425869431,94.17393227577793,71.63820927394751,36933.33333333333
112.53364557739556,94.47867014742016,71.34322788697789,36966.66666666667
112.8978194103194,94.439957002457,71.74720515970515,37000.0
112.90264127764128,94.4436117936118,71.74717444717443,37033.33333333333
112.53989557739555,94.5489864864865,71.38246314496314,37066.66666666667
112.71968166513622,94.43844505662688,71.68582797673706,37100.0
112.38285889194981,94.58307315580043,71.33425160697887,37133.333333333336
112.72759412304869,94.56199877563515,71.70111723293542,37166.66666666666
112.46847470135141,94.62489430069338,71.35373522131512,37200.0
112.44402933444029,94.63239702965731,71.33065817997327,37233.333333333336
112.75948749237341,94.6057962172056,71.894874923734,37266.66666666666
112.32176632092741,94.75181513117757,71.46069249542406,37300.0
112.68979560707749,94.72774557657108,71.86895973154363,37333.333333333336
112.70205863813169,95.01334501791125,71.57049951570501,37366.66666666666
113.07306397306398,94.98100704009796,72.0469696969697,37400.0
113.08292011019286,94.99322007958372,72.07231404958678,37433.33333333333
112.58263614354448,94.86757990867581,71.64472434188349,37466.66666666667
113.0310988674625,94.88158861340679,72.0571931435568,37500.0
112.59963130551368,94.89548577783873,71.66645337233572,37533.33333333333
113.1910712081945,94.81852400345552,71.97616623472788,37566.66666666667
112.83536961619154,94.82080710847835,71.52354066395162,37600.0
112.8294613106257,94.80820375169694,71.52102616314946,37633.333333333336
113.20449922958393,94.81180277349769,72.03645608628659,37666.66666666666
112.55528007346192,94.63613406795228,71.43445056626875,37700.0
112.95111723293543,94.55437710437711,71.93809305172942,37733.333333333336
112.51859539074152,94.55655489445444,71.29088449179773,37766.66666666666
112.7936903279369,94.53735221315132,71.71016097043494,37800.0
112.81303137924142,94.54144181541443,71.73980289962027,37833.333333333336
112.45645852464035,94.68717477808387,71.48238445056626,37866.66666666666
112.84493419038874,94.654193449648,71.859657177839,37900.0
112.53256810529535,94.75214263850629,71.46590143862872,37933.33333333333
112.89920416284052,94.76049892868076,71.93082338536884,37966.66666666667
112.8255275823769,94.93992965568307,71.56000863877577,38000.0
112.60823385368843,94.8721610039792,71.58767982858892,38033.33333333333
112.9745485154576,94.82442607897154,71.95047444138353,38066.66666666667
112.8970905837344,95.04009317536716,71.66847155374553,38100.0
113.24785573244478,94.95401394545229,71.98104097247932,38133.333333333336
112.90895270270269,95.11853501228501,71.64405712530713,38166.66666666666
113.39258607922993,95.10297112180677,72.06594779711219,38200.0
113.28087572836432,95.02110911243332,72.05285734052858,38233.333333333336
112.93962112797728,95.24552634826608,71.6033259286684,38266.66666666666
113.1400458158449,95.08103869747706,72.00913242009132,38300.0
112.86633457866337,95.20961517765171,71.71614162938364,38333.333333333336
113.17459219285706,95.23281521455036,72.06926187291485,38366.66666666666
113.04169751943724,95.37756077995803,71.6942644699494,38400.0
113.0272275700358,95.38499629766754,71.69191965938542,38433.33333333333
113.10160970434944,95.11003489998924,71.94543609612103,38466.66666666667
112.95645131432804,95.26340552881649,71.65961680858942,38500.0
113.26314328026658,95.0888868320375,72.0014500802172,38533.33333333333
112.71417370047509,94.95788939624556,71.48712390264902,38566.66666666667
112.92367615549429,94.82269666360577,71.78308846036118,38600.0
113.11948710073708,94.9548065110565,71.90726351351351,38633.333333333336
112.64975477760866,94.8650584997617,71.33820703227096,38666.66666666666
113.00934766231572,94.77029042325846,71.84897683071199,38700.0
112.55054348661655,94.80033208800332,71.26176529372876,38733.333333333336
113.12978217943972,94.79342527458971,71.76917499691473,38766.66666666666
112.570345771259,94.75107236751072,71.36197592361977,38800.0
112.6045846593792,94.74297003520748,71.3862829205295,38833.333333333336
112.91777747028887,94.62703134849257,71.69566286917885,38866.66666666666
112.79842342342344,94.84072257188696,71.50186659262002,38900.0
113.16658953474024,94.77753609774156,71.8815407873627,38933.33333333333
112.81940330741699,94.89517771195854,71.46364000987289,38966.66666666667
112.884676291069,94.72033885275894,71.74479959411468,39000.0
112.90696923573636,94.71508079270636,71.77853112556309,39033.33333333333
112.84129334814268,94.96090953967665,71.45105207947674,39066.66666666667
112.74173388338156,94.74076411551012,71.54633335385752,39100.0
112.80813882063879,95.03326167076168,71.5616554054054,39133.333333333336
113.096766754301,94.86485863198193,71.91554817582215,39166.66666666666
112.5475927798719,94.88196806717535,71.48083111151972,39200.0
112.50160158633314,94.94187004270896,71.56246186699207,39233.333333333336
112.87873283664798,94.85688996982944,71.78609691521457,39266.66666666666
112.55786281632903,94.99565913428977,71.4730620035712,39300.0
112.87295822990409,94.88094143605774,71.85644019490668,39333.333333333336
112.48999389871874,95.014399023795,71.55045759609519,39366.66666666666
112.84263592143341,94.79140754879623,71.70006465119144,39400.0
112.85673603842129,94.79574841450649,71.69403053999137,39433.33333333333
112.41445251448008,94.83557046979864,71.35256351322361,39466.66666666667
112.94183847608505,94.726688498378,71.81341574035638,39500.0
112.39016579326409,94.65826974349544,71.29634396739297,39533.33333333333
112.86957858647357,94.66114724105593,71.73425272512031,39566.66666666667
112.358799914192,94.57304403787808,71.30576752168183,39600.0
112.35414176703136,94.56556648585699,71.3117434341577,39633.333333333336
112.80585945879685,94.49621525543196,71.82876712328769,39666.66666666666
112.3283993748276,94.54535564340658,71.35771199166437,39700.0
112.68470166406178,94.42481076277159,71.77270080598204,39733.333333333336
112.54178005319557,94.59904985932384,71.46759835800931,39766.66666666666
112.8250541949172,94.5409344587427,71.75631505311871,39800.0
112.85031440739205,94.54313300432024,71.76358716541365,39833.333333333336
112.5647802223145,94.63836231416141,71.4329751087742,39866.66666666666
112.75993686984768,94.48213355398241,71.73152830130857,39900.0
112.3303691275168,94.61078401464307,71.33942953020134,39933.33333333333
112.6726510067114,94.58875838926174,71.75716900549115,39966.66666666667
112.37756253813299,94.7384533251983,71.43302318486883,40000.0
112.46936764977524,94.6837633150668,71.28241795455945,40033.33333333333
112.75226012074407,94.72173699855965,71.77339033434464,40066.66666666667
112.41511592434412,94.85196766320928,71.41673276388042,40100.0
112.8860585723002,94.83981086028065,72.0081452104942,40133.333333333336
112.79900184275185,95.16374385749386,71.70029176904177,40166.66666666666
112.80372958229904,94.8406270111244,71.93829487297357,40200.0
112.99255876881449,94.94569746167922,71.95413803176359,40233.333333333336
112.69196510560148,95.12128864401592,71.7478267523722,40266.66666666666
113.0480563207836,95.08864401591671,72.13957759412305,40300.0
112.73241505968781,95.21242730333641,71.79681665136211,40333.333333333336
112.98905723905723,95.14525558616468,71.99716865625956,40366.66666666666
112.46503325058993,94.9890441604609,71.34022861695934,40400.0
112.44077181208056,95.02265100671141,71.44766625991458,40433.33333333333
112.90521885521886,94.99462809917357,71.88798591980411,40466.66666666667
112.62498654736099,95.01014713343477,71.44332210998878,40500.0
112.7780944500628,94.67362324170269,71.70915693665533,40533.33333333333
112.25405735204392,94.68374008541794,71.32702867602197,40566.66666666667
112.60475971839607,94.57225283134376,71.64914294459749,40600.0
112.61596265687176,94.5604071013162,71.66876339149067,40633.333333333336
112.3920637116984,94.64162169641622,71.3149147487047,40666.66666666666
112.68588919498009,94.51505968778696,71.71986531986529,40700.0
112.42265885644882,94.61038082499269,71.25029595805852,40733.333333333336
112.46193803438447,94.4068983481965,71.50220649076032,40766.66666666666
112.19789464006621,94.50248230210535,70.99122000551624,40800.0
112.18805736875977,94.50867273451624,70.96040574913425,40833.333333333336
112.74416924188614,94.56176683117323,71.49983856833174,40866.66666666666
112.41597796143252,94.61925313743495,71.22509947964494,40900.0
112.77038567493112,94.53010407101317,71.69432200795838,40933.33333333333
112.27545891943242,94.5103582482915,71.20383990683706,40966.66666666667
112.82104146487707,94.59731254708423,71.69374106360408,41000.0
112.85102163184357,94.6002029426687,71.73595928847071,41033.33333333333
112.51053346924908,94.67749359033763,71.2568035090971,41066.66666666667
112.9456052150116,94.70213551035471,71.90726135018373,41100.0
112.53100256753224,94.84310379287548,71.43362083544731,41133.333333333336
112.88424580662024,94.76457112986792,71.83317190166505,41166.66666666666
112.51553587626648,94.88338483772274,71.42811678428117,41200.0
112.50234460280123,94.88609073997202,71.43365158433652,41233.333333333336
113.00834567444157,94.91359681599407,71.83081883253115,41266.66666666666
112.34244966442957,94.862278828554,71.43390787065283,41300.0
112.9472656550282,94.87334532540012,71.91132020355765,41333.333333333336
112.58290669249573,94.99103669879926,71.4907522715742,41366.66666666666
112.90420183570869,94.88764355887643,71.85448088187816,41400.0
112.91374936580415,94.91087434466431,71.86239872084622,41433.33333333333
112.33515675278109,94.8116055284852,71.27072415800926,41466.66666666667
112.58347890043207,94.686325886427,71.5606018816463,41500.0
112.62645008021721,94.84670800937923,71.3961341478465,41533.33333333333
112.97848019252129,94.67781994323092,71.93380538072319,41566.66666666667
112.4794829075651,94.60582500308529,71.33175984203382,41600.0
112.4988121683327,94.58958101937556,71.34538134024436,41633.333333333336
112.92615608727995,94.47515807091496,71.68024733449045,41666.66666666666
112.32921310264143,94.36903515793362,71.29965827227387,41700.0
112.90477292360858,94.5212421325435,71.73782858200667,41733.333333333336
112.63172590398621,94.58408922621253,71.3686134764902,41766.66666666666
112.92149512526224,94.48110267802048,71.75035480686167,41800.0
112.93582623719612,94.47426878933727,71.75802172035048,41833.333333333336
112.23047102448594,94.37082835340628,71.1945082896632,41866.66666666666
112.52136005638808,94.29042934632713,71.55199043854005,41900.0
112.43434343434343,94.50707993173748,71.33299509555219,41933.33333333333
112.52822469430909,94.30953694339738,71.60102356654714,41966.66666666667
112.47740725366295,94.55086634995311,71.44552065556631,42000.0
112.44685823224636,94.55970665559708,71.43096105653183,42033.33333333333
113.01858879427373,94.63252807602123,71.94707207207206,42066.66666666667
112.34459562992248,94.52880696270418,71.32971714014279,42100.0
113.01610514624214,94.70890410958904,71.8431445143774,42133.333333333336
112.51226111956707,94.72061559276173,71.39194071614162,42166.66666666666
112.6903251509301,94.61913517820477,71.77411050841225,42200.0
112.73074683583096,94.61603996199932,71.81483865036316,42233.333333333336
112.62917049280684,94.91215182124272,71.57234465870829,42266.66666666666
112.9323216948788,94.78681795120151,71.76892209768924,42300.0
112.82757929162041,94.91399790201159,71.43747686042205,42333.333333333336
113.07035974330496,94.77497531778354,71.85269344687153,42366.66666666666
112.55955291115109,94.63900804083453,71.3769045093246,42400.0
112.5482065710376,94.64749473425272,71.36276002029426,42433.33333333333
112.76715403656044,94.50176037390648,71.65166120873883,42466.66666666667
112.48800024599112,94.47299478806327,71.26491705487139,42500.0
112.85704841412607,94.32749104438602,71.72987100840982,42533.33333333333
112.36938640591607,94.33030456774748,71.19091985302032,42566.66666666667
112.66199283550884,94.18719923742756,71.60913549498025,42600.0
112.699368110327,94.18226404071152,71.63553341635533,42633.333333333336
112.5414815500432,94.30403862766876,71.25646365543626,42666.66666666666
112.75163519684068,94.28890534369988,71.60875601629026,42700.0
112.47411452548441,94.34191040355421,71.28776379118845,42733.333333333336
112.62347985179035,94.16433743831007,71.5645649800901,42766.66666666666
112.4806090336912,94.33245402937186,71.22403739355795,42800.0
112.31373091647065,94.27713973832695,71.17240902172409,42833.333333333336
112.6283842996172,94.2266193133773,71.48949156711714,42866.66666666666
112.35716372246051,94.32958196885136,71.24119428685637,42900.0
112.63030610519195,94.31712866872684,71.5892563381148,42933.33333333333
112.3769352582138,94.40028903955843,71.22199160555327,42966.66666666667
112.83787648171207,94.4346970465692,71.79920975354766,43000.0
112.83846071060684,94.45127069784607,71.85809387635872,43033.33333333333
112.5863106256942,94.59769529803776,71.42977909416265,43066.66666666667
112.64994458469305,94.35476571639677,71.66324425835847,43100.0
112.2911920448248,94.46213287359151,71.24961517147958,43133.333333333336
112.82065301331356,94.58425230902296,71.7052790906002,43166.66666666666
112.73765889176849,94.8072010366531,71.62143650499816,43200.0
112.73335493027271,94.81600950265334,71.58473713439467,43233.333333333336
112.86524299309687,94.63339636855619,71.94197684608643,43266.66666666666
112.73188942367024,94.82913735653463,71.58669628532644,43300.0
113.0497192397877,94.71731148957176,71.81499136122423,43333.333333333336
112.54994388327722,94.56516458342941,71.30971818643052,43366.66666666666
112.79535415315232,94.45862292651285,71.59997528804871,43400.0
112.75842135202866,94.45806620235844,71.66409913441878,43433.33333333333
112.45104008117708,94.43658810325478,71.18692249742479,43466.66666666667
112.82659163937704,94.34715495902712,71.66908045446857,43500.0
112.72103871870628,94.53979163427151,71.26005286891619,43533.33333333333
113.15526356709688,94.4772663660395,71.75308661172447,43566.66666666667
112.72601461670037,94.4080858342404,71.23249883377392,43600.0
112.56268596578232,94.30506136870815,71.19180820728988,43633.333333333336
113.0488352294714,94.44021360575806,71.74652116709234,43666.66666666666
112.44364741453785,94.3274250277675,71.17828273478959,43700.0
113.00535562262979,94.46211593529912,71.69459020199675,43733.333333333336
112.79250505364641,94.52828487016016,71.21550303218784,43766.66666666666
112.9974119761964,94.39810624845028,71.61184292090256,43800.0
112.83523306459088,94.33867729280571,71.5875884224508,43833.333333333336
112.91472554812628,94.65066086145235,71.41604727103095,43866.66666666666
113.22691742125221,94.70520857518768,71.92776100920982,43900.0
112.98241622165469,94.8189768593762,71.61013853416918,43933.33333333333
113.42315610246885,94.8658772540825,72.13892113613497,43966.66666666667
113.06031721349713,94.92990203700823,71.50401181775773,44000.0
113.05202923340073,94.9392007463847,71.50751049603484,44033.33333333333
113.37272656915098,94.9770296416686,72.01948765575419,44066.66666666667
113.02513737326832,95.09429610711244,71.62920826561411,44100.0
113.48206795139694,95.10627660397802,72.13136754121197,44133.33333333334
112.87792690989036,95.07677997632335,71.71426594714266,44166.66666666666
113.32085338763422,94.99839565592993,72.10073429593977,44200.0
113.34013636924595,94.9953566580279,72.11813525854622,44233.33333333334
112.96516722201656,94.99345921263728,71.74597371343947,44266.66666666666
113.32688510428235,94.83419721090954,72.06721276070591,44300.0
112.96501295816364,94.82636060718252,71.67638528939901,44333.33333333334
113.17201962236209,94.63604529186722,71.8681661113168,44366.66666666666
113.0431235972448,94.74779041869823,71.60328147976163,44400.0
113.05112607383327,94.7418930423342,71.59366922064855,44433.33333333333
113.32111563618412,94.62208441318027,72.06583981241515,44466.66666666667
112.70847619930193,94.4184505606524,71.3217341611837,44500.0
113.02156117752449,94.29836592221916,71.79305285268589,44533.33333333333
112.614578048368,94.42533400980888,71.47311778362007,44566.66666666667
112.9428072776697,94.29666697556608,71.76630216538473,44600.0
112.96755011892628,94.2954313780002,71.77955394927872,44633.33333333334
112.46310257117464,94.36845331126842,71.48956513744601,44666.66666666666
112.96872393661388,94.38797763568407,71.79410311061687,44700.0
112.56988062442608,94.53403734312826,71.48469543924091,44733.33333333334
112.9117814368956,94.51848776962929,71.75688390756882,44766.66666666666
113.01556523091276,94.79556834084902,71.48082724304152,44800.0
113.01623386720571,94.79463535997513,71.4853522002799,44833.33333333334
112.991999505761,94.5228894449078,71.70750316621877,44866.66666666666
112.65651953323187,94.68854450132989,71.39978168288671,44900.0
113.12550582275354,94.61492601859577,71.79421122540391,44933.33333333333
112.85967332010912,94.82511467889908,71.40081824944211,44966.66666666667
113.00619343279895,94.61735087881878,71.766147715689,45000.0
113.0309826089643,94.61503413338276,71.7824267136194,45033.33333333333
112.68847496370434,94.6675779198715,71.40731473758997,45066.66666666667
112.91946992864423,94.56431285330368,71.71408272325705,45100.0
112.58368084514878,94.54656658326384,71.3252247243073,45133.33333333334
112.86232354122265,94.39756896178915,71.66207951070336,45166.66666666666
112.26556035671601,94.38587539456344,71.33717936931139,45200.0
112.46583572730364,94.4426064930652,71.29359342662094,45233.33333333334
112.8364377722176,94.33790504432709,71.59738053316036,45266.66666666666
112.33421587340679,94.32618065390058,71.1848100486423,45300.0
112.68933272115092,94.41614631160084,71.59833180287725,45333.33333333334
112.40716141629385,94.41246559968022,71.16662823055519,45366.66666666666
112.89866555462886,94.361767522318,71.74407685416861,45400.0
112.82640714604184,94.38500684162784,71.81341574035638,45433.33333333333
112.51781326781328,94.66345208845208,71.46713759213759,45466.66666666667
112.6426056608705,94.42209000199871,71.68720692464984,45500.0
112.73251296339292,94.75351752960295,71.4082965714728,45533.33333333333
112.68357855572468,94.47402487585137,71.75762188090955,45566.66666666667
112.43074581430746,94.6216656673278,71.37967190935228,45600.0
112.42181326199592,94.61399381947328,71.35799394246881,45633.33333333334
112.82473133158064,94.59127039035715,71.81161693033839,45666.66666666666
111.9166137470138,94.46316792161845,71.29278175935166,45700.0
112.25732559194412,94.40202304272884,71.63260153013395,45733.33333333334
112.05075926515877,94.50888211289612,71.19005142675101,45766.66666666666
112.66487988882272,94.67532566698738,71.62302041813656,45800.0
112.6844733586842,94.67601288923504,71.66559765428141,45833.33333333334
112.49026998866108,94.81848548925869,71.32021697159144,45866.66666666666
113.28022028878193,94.87438294458843,71.934808095767,45900.0
112.68163026039738,94.87722139948168,71.3837313340738,45933.33333333333
112.64124605436548,94.57477552021084,71.60159051208974,45966.66666666667
112.64013328396892,94.76504072565716,71.29823830679996,46000.0
112.48863059821964,94.66838860446168,71.29271405070492,46033.33333333333
112.69812448285371,94.38192209861788,71.65016395452176,46066.66666666667
112.52167027966117,94.52775855972205,71.30587457528097,46100.0
112.99091385906456,94.53076021226707,71.78032827347896,46133.33333333334
112.74523324694557,94.56096507466371,71.42927002344811,46166.66666666666
113.09555103048254,94.52059422436136,71.76004257682341,46200.0
113.12651178575837,94.54094162655808,71.79552326298902,46233.33333333334
112.81525360977415,94.62561705541158,71.39053436998644,46266.66666666666
113.12537023324695,94.6037732938418,71.71049302727386,46300.0
112.84123164260151,94.69619276811058,71.39824756263113,46333.33333333334
113.0372830281506,94.61991298064358,71.91691650139137,46366.66666666666
112.5569085066802,94.71488092492659,71.44547453223251,46400.0
112.54819119659302,94.7487047030426,71.4974862783082,46433.33333333333
112.90197254124195,94.6901126946789,71.81479944037022,46466.66666666667
112.57921682579216,94.80718909029413,71.44342973110095,46500.0
112.94462978407934,94.75166033422916,71.75045562660242,46533.33333333333
112.62572205232756,94.82941031106172,71.31756401939889,46566.66666666667
112.94362586105707,94.86714237172954,71.70611311895716,46600.0
112.99321965835728,94.86632378834213,71.74288759151145,46633.33333333334
112.81688880661484,95.1013359249661,71.48202826113786,46666.66666666666
113.1520578797976,95.07710107367642,71.84931506849315,46700.0
113.13082578747776,95.30653974150609,71.61046358640972,46733.33333333334
113.05110465384438,95.07685684854636,71.82957428162908,46766.66666666666
113.14811547093878,95.41965792121351,71.64165312282331,46800.0
112.93605763297545,95.28706960385044,71.56503764038011,46833.33333333334
113.2097074243193,95.1800039973556,72.08025460080255,46866.66666666666
112.74830496748304,95.31286994757315,71.56181295450702,46900.0
113.05540949833187,95.14871700259829,71.96712943744906,46933.33333333333
112.85653461680859,95.22840306059484,71.60931136616068,46966.66666666667
113.09815808959644,95.05895964457608,71.98897013451808,47000.0
113.31799396331553,95.1839176534324,72.11974305394321,47033.33333333333
112.58950232922837,94.955844595114,71.56236643451255,47066.66666666667
113.06920276440823,94.88439466864125,71.84447118351228,47100.0
112.725533752931,94.9086140935456,71.48883129705048,47133.33333333334
113.10632593602777,94.78285395487231,71.76297111331516,47166.66666666666
112.74441564852523,94.82811921510552,71.40136369245957,47200.0
112.72237134394669,94.82616006417378,71.36577502159696,47233.33333333334
112.87123902649016,94.6935719447135,71.68407053795181,47266.66666666666
112.72030420831793,94.87061890657782,71.34494940145625,47300.0
113.138698630137,94.82890596075528,71.84112365790448,47333.33333333334
112.7377262583685,94.91383585420284,71.30805231837344,47366.66666666666
113.05453446565832,94.85398586660057,71.76650446317878,47400.0
112.92354740061162,94.77298983721005,71.76932937942112,47433.33333333333
112.61778333796684,94.89718283754982,71.4201340623359,47466.66666666667
112.98942019584223,94.85288666481328,71.77073487165232,47500.0
112.68915454236557,94.98609952738394,71.3374262502703,47533.33333333333
113.05410372841568,94.91157754919224,71.81524727396288,47566.66666666667
112.73085596021376,95.04404905322338,71.40992493744787,47600.0
112.73369783461528,95.04888332869986,71.39810953572422,47633.33333333334
113.21313228365982,95.06860587651873,71.76140590131415,47666.66666666666
112.77998640842678,95.09826089642605,71.51612454823464,47700.0
113.08374262502704,95.09920303957004,71.86871775862602,47733.33333333334
112.72427640317551,95.2374664071912,71.49423902634912,47766.66666666666
113.18325456398851,95.29132301609371,71.79203348469404,47800.0
113.20623667871376,95.29207981960276,71.8089611713465,47833.33333333334
113.13972943554657,95.60687295910436,71.54091121132019,47866.66666666666
113.28624783039923,95.39265125216959,71.88862199355319,47900.0
112.78057331727058,95.33999011521948,71.46966607975783,47933.33333333333
113.014518271399,95.17452815617956,71.85799894974208,47966.66666666667
112.67208785098694,95.15375467210329,71.43123899545918,48000.0
112.66953943100737,95.1530133135638,71.41123775986162,48033.33333333333
112.98243906959505,94.98972909523373,71.78060420720972,48066.66666666667
112.83030622365486,95.16107736176544,71.50458715596329,48100.0
113.10479171832384,95.05210141333995,71.81930324820232,48133.33333333334
112.58108609026041,94.9418651345257,71.44686930466747,48166.66666666666
112.91298304142342,94.84414481203473,71.8184907175733,48200.0
112.94286905754795,94.83126370741051,71.84700213140579,48233.33333333334
112.59310227658851,94.8614740678961,71.41111420010503,48266.66666666666
113.20777027027029,94.92730287627077,71.96396912968014,48300.0
112.7046553434168,94.94076989833871,71.46982705182245,48333.33333333334
112.86999969110062,94.78100577641862,71.80281407345628,48366.66666666666
112.58848761588487,94.90434020571008,71.49521086050767,48400.0
112.57308242239748,94.90696923573636,71.50821764063774,48433.33333333333
112.93453561490091,94.87828052211614,71.8939009578279,48466.66666666667
112.6298909951878,95.04092677152036,71.59380717371585,48500.0
113.01003923022272,94.98991443486857,71.85389058783555,48533.33333333333
112.67604176319773,95.11006085318012,71.59958916380936,48566.66666666667
113.04662836314213,95.0867235041547,71.99528928428013,48600.0
113.07022827665031,95.08584314088905,72.02105149352856,48633.33333333334
112.71747920606369,95.14807127592516,71.65618129545071,48666.66666666666
113.01305290346386,95.1427363436496,71.97355595529113,48700.0
112.79233737681228,95.22222222222223,71.73039373952616,48733.33333333334
113.13006780130068,95.13011392463447,72.17245514505788,48766.66666666666
112.59846563042908,95.14095290807622,71.6172070783943,48800.0
112.58559722030041,95.11869071229802,71.60246298602463,48833.33333333334
112.86190673861908,94.97450917085621,71.90334086681119,48866.66666666666
112.56454960564552,95.0034592500346,71.56564119121197,48900.0
112.9111357102225,94.80146979690359,71.92354288701321,48933.33333333333
112.51824177851576,94.7733345632889,71.54351736543519,48966.66666666667
112.94391931547895,94.63390788620147,71.84162728199426,49000.0
112.9530164025577,94.63228616439626,71.85887931300776,49033.33333333333
112.55346463109021,94.72744184616332,71.47416324585275,49066.66666666667
112.84579432068016,94.60543025383207,71.8243315960211,49100.0
112.56102885783251,94.69327983026614,71.50915548175823,49133.33333333334
112.87099303537659,94.57403563796257,71.81610626816106,49166.66666666666
112.57235982350136,94.65690389434685,71.53699860092556,49200.0
112.55578617222451,94.66359177774704,71.49693279830267,49233.33333333334
112.77855413563788,94.54043700775335,71.91970825288836,49266.66666666666
112.36042413655727,94.6434218994208,71.4601146149367,49300.0
112.84354965176884,94.61427055947605,71.94339129498947,49333.33333333334
112.6341958396753,94.7529173008625,71.59923435265901,49366.66666666666
112.91491782359364,94.73476008179205,71.90772258352169,49400.0
112.95828913180513,94.73140845286964,71.92815522039268,49433.33333333333
112.64646464646464,94.83896806727856,71.52094768076503,49466.66666666667
113.1226706158213,94.89104344070098,71.9074416882636,49500.0
112.84507281253859,94.97840306059484,71.69640873750463,49533.33333333333
112.95561397844506,94.89099518779885,71.9906062143505,49566.66666666667
112.83146674071331,95.0666728372208,71.646535233864,49600.0
112.82677711958534,95.0584968530174,71.65264408243861,49633.33333333334
113.08911822781687,94.9775700357892,71.99631309391583,49666.66666666666
112.56338114785605,94.88612148886122,71.53767507648786,49700.0
113.06110391213132,94.80445514007158,71.79135813896089,49733.33333333334
112.6060872516352,94.77995804023199,71.282302850796,49766.66666666666
112.87112797729236,94.58637233123535,71.70506293965198,49800.0
112.9256602492904,94.56858570899666,71.7894606935703,49833.33333333334
112.78713721848152,94.73215695379616,71.4591285504218,49866.66666666666
112.85298654819205,94.45677526841914,71.7667530544243,49900.0
112.56318647414535,94.46837591015672,71.39380476366776,49933.33333333333
113.07849237675104,94.50859840569616,71.81269251605912,49966.66666666667
112.6535717049764,94.57721538580608,71.32969584397492,50000.0
112.6595619534092,94.57735469390914,71.31961922451822,50033.33333333333
112.81520733061829,94.33678884363815,71.61447920523263,50066.66666666667
112.58541589534741,94.42835986671604,71.30246513636925,50100.0
112.87797729236084,94.37058805380724,71.6742255954585,50133.33333333334
112.45099395784328,94.42433467091,71.2462678535738,50166.66666666666
112.84593269068158,94.39979705733131,71.8165982503882,50200.0
113.07034431691963,94.54189806244601,71.92690978649884,50233.33333333334
112.37272266039386,94.54356348876895,71.37741186599634,50266.66666666666
112.70640960595298,94.47281029472806,71.74928893193733,50300.0
112.39066463724,94.58000092246668,71.39061851390618,50333.33333333334
112.7175849403122,94.58764921946741,71.92162534435262,50366.66666666666
112.47554331190695,94.69715335169882,71.60397918579737,50400.0
112.49164370982555,94.67728803183347,71.61463116008571,50433.33333333333
112.8337618610346,94.65849403122131,72.03893480257115,50466.66666666667
112.50765228037956,94.80915212733395,71.62179369452097,50500.0
112.8395622895623,94.77711968166514,71.97558922558923,50533.33333333333
112.58774104683195,94.86582491582493,71.66493725130088,50566.66666666667
112.89279155188248,94.73148148148148,71.99888276706459,50600.0
112.93018059381693,94.72317110498928,72.02286501377411,50633.33333333334
112.600382614019,94.76307009488829,71.6049433731252,50666.66666666666
113.00136210590756,94.5945056626875,72.02845117845119,50700.0
112.48258844149255,94.39243269836878,71.43111480097781,50733.33333333334
112.75013452639023,94.291945328475,71.70631735928539,50766.66666666666
112.45408422120752,94.30055501745001,71.34750857125286,50800.0
112.42212075088787,94.27704749165936,71.30344541303445,50833.33333333334
112.93588794273728,94.2934098482044,71.70739232383069,50866.66666666666
112.4202758175361,94.20020601755762,71.27816982611503,50900.0
112.73250003843613,94.1495625970512,71.64429684977631,50933.33333333333
112.36295988807406,94.25453930476765,71.27118982826745,50966.66666666667
112.6799348123549,94.15363682486972,71.67770551788817,51000.0
112.70562550927849,94.16026321049152,71.6715403656043,51033.33333333333
112.35764033024307,94.25950525037285,71.28496533062744,51066.66666666667
112.69364881693649,94.19413311194134,71.61261011945943,51100.0
112.42039881309287,94.3309810433098,71.28496533062744,51133.33333333334
112.87156188982674,94.3275525421644,71.75746813646357,51166.66666666666
112.40345617514568,94.48165060037206,71.0145134757007,51200.0
112.37588979598112,94.50491213504914,70.97211075749887,51233.33333333334
112.74187844964099,94.42199775533108,71.41707793305967,51266.66666666666
112.48414126039695,94.52835816306136,71.15466691265779,51300.0
113.0557587403918,94.65655219439623,71.63634391272006,51333.33333333334
112.56665590455543,94.69686207585752,71.3853143305198,51366.66666666666
112.85750964746398,94.63305813077505,71.69912211921344,51400.0
112.8718540042741,94.63130544409084,71.73353012622421,51433.33333333333
112.59322294482115,94.76154236428208,71.39044939501561,51466.66666666667
112.9558599695586,94.69769229586582,71.81154005811541,51500.0
112.66652829666529,94.7767015666559,71.54142644096981,51533.33333333333
112.95481450732592,94.74976553971987,71.82762172716511,51566.66666666667
112.70871577264273,94.79768768353243,71.52829666528297,51600.0
112.7081007948588,94.79502790461693,71.53135617975799,51633.33333333334
113.00730286118414,94.71398920713987,71.98762357209846,51666.66666666666
112.60429779094164,94.79245341231643,71.35198383314822,51700.0
112.92198876959152,94.64618042700235,71.74460076514872,51733.33333333334
112.44985624894301,94.61190289500792,71.40734590962902,51766.66666666666
112.7029503559184,94.49577971495779,71.69251110803623,51800.0
112.71254400934768,94.49015266823488,71.6970619436373,51833.33333333334
112.57619091694436,94.6414445267185,71.37538565963223,51866.66666666666
113.14023682377524,94.61914712483556,71.85248819750792,51900.0
112.68735344933977,94.63459521165001,71.407889053437,51933.33333333333
113.05562754535356,94.51169320004936,71.8354313217327,51966.66666666667
112.59382254816043,94.49371953938164,71.41523299970787,52000.0
112.57480436019249,94.50025367833588,71.39541534062081,52033.33333333333
113.23360421020044,94.65299899388592,71.89038000154787,52066.66666666667
112.93348812011452,94.78894822382168,71.5008590666357,52100.0
113.13254350240652,94.62715969394053,71.95754658768358,52133.33333333334
112.65542083179069,94.75067876095274,71.54385721337776,52166.66666666666
113.24796842349664,94.7747233186286,71.9903103474963,52200.0
113.26347805897377,94.79224518226142,72.02677811314913,52233.33333333334
112.97007971519231,94.90633851869049,71.66425199287981,52266.66666666666
112.93527358824163,94.68703780575927,71.91636302138585,52300.0
112.673923404517,94.8412127361899,71.516089356272,52333.33333333334
112.99560290884493,94.83321802499884,71.98668573097797,52366.66666666666
112.71881678274372,94.94091600940916,71.585689466968,52400.0
112.70713220484907,94.93513521824025,71.6119797672309,52433.33333333333
113.02095536798734,94.92901618929017,71.90649262795381,52466.66666666667
112.91322658274711,95.14719856843143,71.59391583364186,52500.0
113.23099469332348,95.10090398617795,72.06847772429964,52533.33333333333
112.79324446904356,95.14885537259968,71.70073643589626,52566.66666666667
112.91072060021831,95.08660424642159,71.95289270175115,52600.0
113.0551339010243,95.19074725410343,71.95355115389363,52633.33333333334
112.81193181818182,95.35462223587223,71.75320945945946,52666.66666666666
112.95197023507528,95.01176145011765,71.98756207432005,52700.0
112.82108478341357,95.07751758607924,71.59309823522153,52733.33333333334
113.06681511056507,94.89445638820636,71.96868857493857,52766.66666666666
112.69949324324324,94.90271805896806,71.58252457002456,52800.0
112.77607059113907,94.89398988029129,71.55803406145873,52833.33333333334
113.10516166851784,94.74310440577564,71.89547081327903,52866.66666666666
112.77121127977293,94.79806861656175,71.55352955695422,52900.0
113.06911020609651,94.71283783783785,71.88511970874984,52933.33333333333
112.78373750462791,94.7901548809083,71.4810872516352,52966.66666666667
113.05766382821176,94.71226706158214,71.8480963840553,53000.0
113.07474083672714,94.71132605207949,71.85931136616068,53033.33333333333
112.8041466123658,94.81374182401579,71.5177557694681,53066.66666666667
113.0237073935704,94.70009070922312,72.01757299017574,53100.0
112.72095211650007,94.84963902258423,71.59471800567691,53133.33333333334
113.06816919659386,94.81034801925213,71.9292854498334,53166.66666666666
112.78546525978037,94.87304084906825,71.58901024311983,53200.0
112.79038627668766,94.86404726644452,71.6031870912008,53233.33333333334
113.08461372331236,94.85877144267558,71.94381710477602,53266.66666666666
112.6434051319896,94.89282474670604,71.4541610934305,53300.0
113.11378501789459,95.0046124892015,71.91424472417623,53333.33333333334
113.05593994272888,95.21153161520006,71.7365838557387,53366.66666666666
113.19494323090214,95.04743613476492,71.99881216833272,53400.0
113.20270270270271,95.06145871899295,72.02508330248057,53433.33333333333
112.80288424580662,95.10243992435774,71.59119351813416,53466.66666666667
113.01974078686408,95.07518103408516,71.8853681410759,53500.0
112.74556831634456,95.18804483188043,71.55918392448073,53533.33333333333
113.1934720108236,95.1527912304168,72.11693802561382,53566.66666666667
112.85975873133408,95.36702455880535,71.7200573861533,53600.0
112.87069603850426,95.3647260273973,71.73068616561767,53633.33333333334
113.23042391706775,95.28751696902384,72.07976983833149,53666.66666666666
112.945575712699,95.41199247192398,71.74429223744292,53700.0
113.2983154387264,95.24173145748487,72.09832777983462,53733.33333333334
112.73048598619377,95.19657764863243,71.65413649431915,53766.66666666666
113.17845242502777,95.1021535233864,72.00101814142909,53800.0
113.1690731827718,95.10631864741457,72.05928359866715,53833.33333333334
112.64883231093279,94.96817489968176,71.59677444152331,53866.66666666666
112.9414387405255,94.79844103131776,71.90066571345109,53900.0
112.55369524775921,94.85520348077426,71.53538428424274,53933.33333333333
112.73365817780638,94.64434127057093,71.87557843768195,53966.66666666667
112.72516351968409,94.82787239294089,71.5402937183759,54000.0
112.75414969764286,94.81965012958165,71.55045970628163,54033.33333333333
112.99045246990451,94.65853358547425,72.0271973924942,54066.66666666667
112.52809679750321,94.72362898390296,71.54011961317897,54100.0
112.872699598727,94.6331965007764,71.91994526697724,54133.33333333334
112.56227418784495,94.73397598511757,71.57515797241825,54166.66666666666
112.86389004197224,94.68010393124548,71.94841873837308,54200.0
112.89802130898022,94.68982058023157,71.95976507848654,54233.33333333334
112.58479774918129,94.79349046015713,71.609489107206,54266.66666666666
112.88305069039015,94.72223766719179,71.79767089858834,54300.0
112.570422643482,94.84436449733252,71.51990221853234,54333.33333333334
112.89712959119352,94.82317851267624,71.81496855926079,54366.66666666666
112.85633407379984,94.9685918795508,71.51436196470443,54400.0
113.07211516136522,95.10686479374658,71.60487578360808,54433.33333333333
113.36142713412278,95.08056651961924,71.97879421097439,54466.66666666667
112.87823954091078,95.04589349623596,71.50954893249414,54500.0
113.16582875943607,94.981366173147,72.0755500207555,54533.33333333333
113.038154941568,95.35207801253773,71.78371643061679,54566.66666666667
112.9965407499654,95.06890826068908,72.06471103731378,54600.0
113.0008763433421,95.06683271066834,72.10217855879957,54633.33333333334
112.88445637418242,95.25735838578305,71.72082870541774,54666.66666666666
113.00833294897222,95.06408068508526,72.05831526836094,54700.0
112.80218746143404,95.19162655806493,71.70498580772555,54733.33333333334
113.14991361224241,94.9694403307417,72.0624305812662,54766.66666666666
112.74478588177219,94.9906978896705,71.572920523263,54800.0
112.73704183635692,94.96902381833893,71.54580093792423,54833.33333333334
113.07085338763422,94.78963038380849,71.88902258422806,54866.66666666666
112.74927495989141,94.79947241762312,71.55655312847094,54900.0
112.96586140935456,94.67922374429224,71.88755707762556,54933.33333333333
112.6998025422683,94.66760767616933,71.54324015796618,54966.66666666667
113.11757990867581,94.57606750586204,72.02190546711095,55000.0
113.13832839689005,94.58882512649636,72.07147044304578,55033.33333333333
112.65372392940887,94.63010613353079,71.48679501419228,55066.66666666667
112.81613701705028,94.43884814661072,71.81675199483418,55100.0
112.61828952239912,94.64209243490066,71.52989633469086,55133.33333333334
112.81861427732989,94.44642140054985,71.77351496617553,55166.66666666666
112.64125941009505,94.68561026780205,71.42180365296804,55200.0
112.64562507713192,94.69361656176727,71.40693261754906,55233.33333333334
112.95396766629645,94.65211958533877,71.76402258422806,55266.66666666666
112.6971646303838,94.78344440330744,71.38160249290387,55300.0
113.03199432309022,94.72539491546341,71.70563371590771,55333.33333333334
112.62876866073212,94.76676967544547,71.37283028150608,55366.66666666666
112.99540304106516,94.70298110480759,71.85323555186571,55400.0
113.01094660455392,94.70653260150978,71.87957197546238,55433.33333333333
112.68022692680228,94.8318804483188,71.54353273987978,55466.66666666667
113.12590132681456,94.81518380148519,72.10828221330505,55500.0
112.67813600233693,94.93944006272774,71.70796242485741,55533.33333333333
113.0187260735206,94.8633519364113,72.05504051166152,55566.66666666667
112.72694986393616,94.98853066432976,71.72894854173394,55600.0
112.63769513314968,94.99407713498623,71.74083256810529,55633.33333333334
113.07736420521809,94.9220823147764,72.04466276155775,55666.66666666666
112.84585380835381,95.1352886977887,71.77564496314496,55700.0
113.13814496314495,94.99422604422605,72.10288697788698,55733.33333333334
112.76412776412776,95.04210687960688,71.6258445945946,55766.66666666666
112.95888873514444,94.74278554187231,71.93324416155467,55800.0
112.9190847872666,94.74329660238752,71.97955310682583,55833.33333333334
112.55195793551958,94.69042018357086,71.50332856725552,55866.66666666666
112.87914149101364,94.56553357009979,71.76268007318234,55900.0
112.52640560859741,94.54463969989084,71.39629168396291,55933.33333333333
112.89119505557863,94.43509678212877,71.88915025444706,55966.66666666667
112.58968900407257,94.4873349376774,71.44824447735405,56000.0
112.5915555966926,94.47531778353695,71.45088238923856,56033.33333333333
112.93070467728,94.41072750833023,71.78191719116377,56066.66666666667
112.61289028754784,94.47866530914476,71.43534801925213,56100.0
112.90520486239664,94.4081821547575,71.81735159817352,56133.33333333334
112.6017215845983,94.524574231766,71.42131000863878,56166.66666666666
112.98159632234974,94.42453412316428,71.85687399728495,56200.0
113.00208256201408,94.43631988152536,71.88481118104406,56233.33333333334
112.87384877331476,94.70400123829424,71.53684699326678,56266.66666666666
113.16808296571472,94.63852642984287,71.94277532698706,56300.0
112.69270640503521,94.56179809946934,71.51571948660991,56333.33333333334
113.19122358950548,94.67629440445783,72.00018574413745,56366.66666666666
112.6356111793612,94.64378071253073,71.54935503685503,56400.0
112.72726150808344,94.63936196470443,71.5002931013205,56433.33333333332
112.9362421782513,94.58198422581984,71.88229325215627,56466.66666666668
112.47906769367957,94.77702442999248,71.10237842657934,56500.0
112.83366388389221,94.69713881586028,71.62741570960749,56533.33333333332
112.54111895207785,94.82385498823857,71.3275525421644,56566.66666666668
112.91018249465738,94.75714527312701,71.75525421644144,56600.0
112.91233491690113,94.76421751764221,71.78246698338023,56633.33333333334
112.57751026244179,94.93284442599511,71.40769952185478,56666.66666666666
112.92269729256031,94.87998708546654,71.82320926156542,56700.0
112.6689728333564,94.9924203988131,71.49624094829575,56733.33333333334
112.98065894869549,94.9236505081254,71.88399981550667,56766.66666666666
112.59932659932659,94.97326384084377,71.51964085297419,56800.0
112.60898175053428,94.95901173070123,71.5339852097843,56833.33333333334
112.8744061620774,94.78509601340653,71.73908030072414,56866.66666666666
112.51751917961964,94.72139968943623,71.32244822655781,56900.0
112.92045262364896,94.53578401980228,71.80760420029826,56933.33333333332
112.35012222683456,94.52886551973309,71.16738157834048,56966.66666666668
112.7129591193518,94.40021216733544,71.60855126608551,57000.0
112.73499069846102,94.39140261058071,71.61742232061867,57033.33333333332
112.2261959486378,94.34537709540008,71.16147221966841,57066.66666666668
111.89008127633957,93.95145996387718,71.5007375075256,57100.0
111.56875187518752,93.98172817281728,71.08931893189319,57133.33333333334
111.89341434143415,93.8863486348635,71.42443744374437,57166.66666666666
111.66851294400965,93.93819987959058,70.99990969295605,57200.0
111.47751275127511,93.867401740174,70.953600360036,57233.33333333334
112.12869223799456,93.89199637571731,71.37556629417095,57266.66666666666
111.93829562594269,94.14315233785824,71.16028657616894,57300.0
112.25895927601809,94.11075414781295,71.55211161387632,57333.33333333334
112.13854628550672,94.2664689235612,71.25260672831006,57366.66666666666
112.85113848794091,94.35343691581623,71.69654622904598,57400.0
112.88431246360823,94.35988783671968,71.74228494376513,57433.33333333332
112.07704718417048,94.23978691019786,71.24797564687975,57466.66666666668
112.3013787878788,94.28965151515152,71.38865151515152,57500.0
112.12263605959257,94.53622681666158,70.94302219519611,57533.33333333332
112.44253572514442,94.5221191851627,71.40392216479172,57566.66666666668
112.35838926174496,94.75690970103722,71.22126296522268,57600.0
112.35700122025624,94.74203782794388,71.23078096400243,57633.33333333334
112.71738865161684,94.70131177547285,71.66247712019525,57666.66666666666
