Time[ms],HR[bpm]
833,73.68421
867,73.68421
900,72.36180999999998
933,72.36180999999998
967,72.36180999999998
1000,72.36180999999998
1033,72.36180999999998
1067,72.36180999999998
1100,72.83237
1133,72.83237
1167,72.83237
1200,72.83237
1233,72.83237
1267,72.83237
1300,72.83237
1333,72.83237
1367,72.83237
1400,72.83237
1433,72.83237
1467,73.25581
1500,73.25581
1533,73.25581
1567,73.25581
1600,73.25581
1633,73.25581
1667,73.25581
1700,73.25581
1733,73.25581
1767,72.36180999999998
1800,72.36180999999998
1833,72.36180999999998
1867,72.36180999999998
1900,72.36180999999998
1933,72.36180999999998
1967,72.83237
2000,72.83237
2033,72.83237
2067,72.83237
2100,72.83237
2133,72.83237
2167,72.83237
2200,72.83237
2233,72.83237
2267,72.83237
2300,72.0
2333,72.0
2367,72.0
2400,72.0
2433,72.0
2467,72.0
2500,72.0
2533,72.0
2567,72.0
2600,72.0
2633,72.36180999999998
2667,72.36180999999998
2700,72.36180999999998
2733,72.36180999999998
2767,72.36180999999998
2800,72.36180999999998
2833,72.0
2867,72.0
2900,72.0
2933,72.0
2967,72.0
3000,72.0
3033,72.0
3067,72.0
3100,72.0
3133,72.0
3167,72.0
3200,72.0
3233,72.0
3267,72.0
3300,72.0
3333,72.0
3367,73.09644
3400,73.09644
3433,73.09644
3467,73.09644
3500,73.09644
3533,73.09644
3567,73.09644
3600,73.09644
3633,72.4138
3667,72.4138
3700,72.4138
3733,72.4138
3767,72.4138
3800,72.4138
3833,72.4138
3867,72.4138
3900,72.4138
3933,71.59091
3967,71.59091
4000,71.59091
4033,71.59091
4067,71.59091
4100,71.59091
4133,71.59091
4167,72.72726999999998
4200,72.72726999999998
4233,72.72726999999998
4267,72.72726999999998
4300,72.72726999999998
4333,72.72726999999998
4367,72.72726999999998
4400,72.0
4433,72.0
4467,72.0
4500,72.0
4533,72.0
4567,72.0
4600,72.0
4633,72.0
4667,72.0
4700,72.0
4733,72.0
4767,72.0
4800,72.0
4833,72.0
4867,72.0
4900,72.0
4933,72.0
4967,72.0
5000,72.0
5033,72.0
5067,72.0
5100,72.0
5133,72.0
5167,70.58823000000002
5200,68.47825999999999
5233,68.47825999999999
5267,68.47825999999999
5300,68.47825999999999
5333,68.47825999999999
5367,68.47825999999999
5400,68.47825999999999
5433,68.47825999999999
5467,68.47825999999999
5500,68.47825999999999
5533,68.47825999999999
5567,68.47825999999999
5600,68.47825999999999
5633,68.47825999999999
5667,68.47825999999999
5700,68.47825999999999
5733,68.47825999999999
5767,68.47825999999999
5800,68.47825999999999
5833,68.47825999999999
5867,68.47825999999999
5900,69.23076999999999
5933,69.23076999999999
5967,69.23076999999999
6000,69.23076999999999
6033,69.23076999999999
6067,69.23076999999999
6100,69.23076999999999
6133,68.47825999999999
6167,68.47825999999999
6200,68.47825999999999
6233,68.47825999999999
6267,68.47825999999999
6300,68.47825999999999
6333,68.47825999999999
6367,68.47825999999999
6400,68.47825999999999
6433,68.47825999999999
6467,68.47825999999999
6500,68.47825999999999
6533,68.47825999999999
6567,68.47825999999999
6600,68.47825999999999
6633,68.47825999999999
6667,68.47825999999999
6700,68.47825999999999
6733,68.47825999999999
6767,68.47825999999999
6800,68.47825999999999
6833,68.35443000000001
6867,68.35443000000001
6900,68.35443000000001
6933,68.35443000000001
6967,68.85246
7000,68.35443000000001
7033,68.10811
7067,68.10811
7100,68.10811
7133,68.10811
7167,68.10811
7200,68.10811
7233,68.10811
7267,68.10811
7300,68.10811
7333,68.10811
7367,68.10811
7400,68.10811
7433,68.10811
7467,68.10811
7500,68.10811
7533,68.10811
7567,68.10811
7600,68.10811
7633,68.10811
7667,68.10811
7700,69.23076999999999
7733,69.23076999999999
7767,69.23076999999999
7800,69.23076999999999
7833,69.23076999999999
7867,69.23076999999999
7900,69.23076999999999
7933,69.23076999999999
7967,69.23076999999999
8000,68.10811
8033,68.10811
8067,68.10811
8100,68.10811
8133,68.10811
8167,68.10811
8200,68.10811
8233,68.10811
8267,68.10811
8300,68.10811
8333,68.10811
8367,68.10811
8400,68.10811
8433,68.10811
8467,68.10811
8500,68.10811
8533,68.10811
8567,68.10811
8600,68.10811
8633,68.10811
8667,67.08074
8700,67.08074
8733,67.08074
8767,67.08074
8800,67.08074
8833,67.08074
8867,67.08074
8900,67.08074
8933,67.08074
8967,67.08074
9000,67.08074
9033,67.08074
9067,67.08074
9100,67.08074
9133,67.08074
9167,67.08074
9200,67.08074
9233,67.08074
9267,63.31658
9300,63.31658
9333,63.31658
9367,63.31658
9400,63.31658
9433,63.31658
9467,61.01695
9500,61.01695
9533,61.01695
9567,61.01695
9600,61.01695
9633,71.18644
9667,71.18644
9700,71.18644
9733,71.18644
9767,71.18644
9800,71.18644
9833,71.18644
9867,71.18644
9900,71.18644
9933,71.18644
9967,71.18644
10000,71.18644
10033,71.18644
10067,71.18644
10100,71.18644
10133,71.18644
10167,71.18644
10200,70.58823000000002
10233,70.58823000000002
10267,70.58823000000002
10300,70.58823000000002
10333,70.58823000000002
10367,58.82353000000001
10400,57.75401
10433,67.37968000000001
10467,67.37968000000001
10500,67.37968000000001
10533,67.37968000000001
10567,67.37968000000001
10600,67.37968000000001
10633,67.37968000000001
10667,67.37968000000001
10700,67.37968000000001
10733,67.37968000000001
10767,67.37968000000001
10800,67.37968000000001
10833,67.37968000000001
10867,67.37968000000001
10900,67.37968000000001
10933,67.37968000000001
10967,67.37968000000001
11000,69.23076999999999
11033,68.35443000000001
11067,68.35443000000001
11100,68.35443000000001
11133,68.35443000000001
11167,68.35443000000001
11200,68.35443000000001
11233,68.35443000000001
11267,68.35443000000001
11300,68.35443000000001
11333,68.47825999999999
11367,68.47825999999999
11400,68.47825999999999
11433,68.47825999999999
11467,68.47825999999999
11500,68.47825999999999
11533,68.47825999999999
11567,68.47825999999999
11600,68.47825999999999
11633,68.47825999999999
11667,68.47825999999999
11700,68.47825999999999
11733,68.47825999999999
11767,58.69565
11800,58.69565
11833,58.69565
11867,58.69565
11900,58.69565
11933,58.69565
11967,58.69565
12000,58.69565
12033,57.69231
12067,57.69231
12100,57.69231
12133,57.69231
12167,59.66851
12200,59.66851
12233,59.66851
12267,59.66851
12300,59.66851
12333,59.66851
12367,59.66851
12400,59.66851
12433,59.66851
12467,59.66851
12500,59.66851
12533,59.66851
12567,59.66851
12600,59.66851
12633,59.66851
12667,59.66851
12700,59.66851
12733,59.66851
12767,59.66851
12800,59.66851
12833,59.66851
12867,59.66851
12900,59.66851
12933,59.66851
12967,58.44156
13000,58.44156
13033,58.44156
13067,58.44156
13100,58.44156
13133,58.44156
13167,58.44156
13200,58.37838000000001
13233,58.44156
13267,58.44156
13300,58.44156
13333,58.44156
13367,56.84211
13400,56.84211
13433,56.84211
13467,56.84211
13500,56.84211
13533,56.84211
13567,56.84211
13600,56.84211
13633,56.84211
13667,56.84211
13700,56.84211
13733,56.84211
13767,56.84211
13800,56.84211
13833,56.84211
13867,55.90062
13900,55.90062
13933,55.90062
13967,55.90062
14000,55.90062
14033,55.90062
14067,55.90062
14100,55.90062
14133,55.90062
14167,56.25
14200,56.25
14233,56.25
14267,56.25
14300,57.14286
14333,57.14286
14367,57.14286
14400,57.14286
14433,57.14286
14467,57.14286
14500,57.14286
14533,57.14286
14567,57.14286
14600,57.14286
14633,57.14286
14667,57.14286
14700,57.14286
14733,57.14286
14767,57.14286
14800,57.14286
14833,59.60265
14867,59.60265
14900,59.60265
14933,59.60265
14967,59.60265
15000,59.60265
15033,59.60265
15067,59.60265
15100,59.60265
15133,59.60265
15167,59.60265
15200,59.60265
15233,59.60265
15267,60.0
15300,60.0
15333,60.0
15367,60.0
15400,60.0
15433,60.0
15467,60.0
15500,60.0
15533,60.0
15567,60.0
15600,60.0
15633,60.0
15667,60.0
15700,60.0
15733,60.0
15767,60.0
15800,60.0
15833,60.0
15867,60.0
15900,60.0
15933,60.0
15967,60.0
16000,60.0
16033,60.0
16067,60.0
16100,61.64384
16133,61.64384
16167,61.64384
16200,61.64384
16233,61.64384
16267,61.64384
16300,61.01695
16333,61.01695
16367,61.01695
16400,61.01695
16433,61.01695
16467,61.01695
16500,61.01695
16533,61.01695
16567,61.01695
16600,61.01695
16633,61.01695
16667,61.01695
16700,61.01695
16733,61.01695
16767,61.01695
16800,61.01695
16833,61.01695
16867,61.01695
16900,61.01695
16933,61.01695
16967,61.01695
17000,61.01695
17033,61.01695
17067,61.01695
17100,61.01695
17133,61.01695
17167,61.01695
17200,61.01695
17233,60.40268
17267,60.40268
17300,60.40268
17333,60.0
17367,60.0
17400,60.0
17433,60.0
17467,60.0
17500,60.0
17533,60.0
17567,60.0
17600,60.0
17633,60.0
17667,60.0
17700,60.0
17733,60.0
17767,60.0
17800,60.0
17833,60.0
17867,60.0
17900,60.0
17933,60.0
17967,60.0
18000,60.0
18033,60.0
18067,60.0
18100,60.0
18133,60.0
18167,58.06452
18200,58.06452
18233,58.06452
18267,58.06452
18300,58.06452
18333,58.06452
18367,58.06452
18400,57.75401
18433,57.75401
18467,57.75401
18500,57.75401
18533,57.75401
18567,57.75401
18600,57.75401
18633,57.75401
18667,57.75401
18700,57.75401
18733,57.75401
18767,57.75401
18800,57.75401
18833,57.75401
18867,57.75401
18900,57.75401
18933,57.75401
18967,57.75401
19000,58.44156
19033,58.44156
19067,58.44156
19100,58.44156
19133,58.44156
19167,58.44156
19200,58.44156
19233,58.44156
19267,58.44156
19300,58.44156
19333,58.44156
19367,58.44156
19400,58.44156
19433,58.44156
19467,58.44156
19500,57.75401
19533,57.75401
19567,57.75401
19600,57.75401
19633,57.75401
19667,57.75401
19700,57.75401
19733,57.75401
19767,57.75401
19800,57.75401
19833,57.75401
19867,57.75401
19900,57.75401
19933,57.75401
19967,57.75401
20000,57.75401
20033,57.75401
20067,57.75401
20100,57.69231
20133,57.69231
20167,57.69231
20200,57.69231
20233,57.69231
20267,57.69231
20300,57.69231
20333,57.69231
20367,57.69231
20400,57.69231
20433,58.69565
20467,58.69565
20500,58.69565
20533,58.69565
20567,58.69565
20600,58.69565
20633,58.69565
20667,58.69565
20700,58.69565
20733,58.69565
20767,58.69565
20800,58.69565
20833,58.69565
20867,58.69565
20900,58.69565
20933,58.69565
20967,58.69565
21000,58.69565
21033,58.69565
21067,58.69565
21100,58.69565
21133,58.06452
21167,58.06452
21200,58.06452
21233,58.06452
21267,58.06452
21300,58.06452
21333,59.34066
21367,59.34066
21400,59.34066
21433,59.66851
21467,59.66851
21500,59.66851
21533,59.66851
21567,59.66851
21600,59.66851
21633,59.66851
21667,59.66851
21700,59.66851
21733,59.66851
21767,59.66851
21800,59.66851
21833,59.66851
21867,59.66851
21900,59.66851
21933,59.66851
21967,59.66851
22000,59.66851
22033,59.66851
22067,59.66851
22100,60.0
22133,61.71429000000001
22167,61.71429000000001
22200,61.71429000000001
22233,61.71429000000001
22267,61.36364
22300,61.36364
22333,61.36364
22367,61.36364
22400,61.71429000000001
22433,61.71429000000001
22467,61.71429000000001
22500,61.71429000000001
22533,61.71429000000001
22567,61.71429000000001
22600,61.71429000000001
22633,61.71429000000001
22667,61.71429000000001
22700,61.71429000000001
22733,61.71429000000001
22767,61.71429000000001
22800,61.71429000000001
22833,61.71429000000001
22867,61.71429000000001
22900,61.71429000000001
22933,63.31658
22967,63.31658
23000,63.31658
23033,63.31658
23067,63.31658
23100,63.31658
23133,64.28571
23167,64.28571
23200,64.28571
23233,64.28571
23267,64.28571
23300,64.28571
23333,64.28571
23367,64.28571
23400,64.28571
23433,64.28571
23467,64.28571
23500,64.28571
23533,64.28571
23567,64.28571
23600,64.28571
23633,64.28571
23667,64.28571
23700,65.96859
23733,65.96859
23767,65.96859
23800,65.96859
23833,65.96859
23867,65.96859
23900,65.96859
23933,65.96859
23967,65.96859
24000,65.96859
24033,65.96859
24067,65.96859
24100,65.96859
24133,65.96859
24167,67.92453
24200,67.92453
24233,67.92453
24267,67.92453
24300,67.92453
24333,67.92453
24367,67.92453
24400,67.92453
24433,67.92453
24467,67.92453
24500,67.92453
24533,67.92453
24567,67.92453
24600,67.92453
24633,67.92453
24667,67.02128
24700,67.02128
24733,67.02128
24767,67.02128
24800,67.02128
24833,67.02128
24867,67.02128
24900,67.02128
24933,67.02128
24967,67.02128
25000,67.02128
25033,67.02128
25067,67.02128
25100,67.02128
25133,67.02128
25167,67.02128
25200,67.02128
25233,69.67742
25267,69.67742
25300,69.67742
25333,69.67742
25367,69.67742
25400,69.67742
25433,69.67742
25467,69.67742
25500,69.67742
25533,69.67742
25567,69.67742
25600,69.67742
25633,69.67742
25667,69.67742
25700,69.67742
25733,67.37968000000001
25767,67.37968000000001
25800,67.37968000000001
25833,67.37968000000001
25867,67.37968000000001
25900,67.37968000000001
25933,67.37968000000001
25967,67.37968000000001
26000,67.37968000000001
26033,67.37968000000001
26067,67.37968000000001
26100,67.37968000000001
26133,67.37968000000001
26167,67.37968000000001
26200,67.37968000000001
26233,67.37968000000001
26267,67.37968000000001
26300,67.37968000000001
26333,67.92453
26367,67.92453
26400,67.92453
26433,67.92453
26467,67.92453
26500,67.92453
26533,67.92453
26567,67.92453
26600,67.92453
26633,67.92453
26667,67.92453
26700,67.92453
26733,67.92453
26767,67.92453
26800,65.96859
26833,65.96859
26867,65.96859
26900,65.96859
26933,65.96859
26967,65.96859
27000,65.96859
27033,65.96859
27067,65.96859
27100,65.96859
27133,65.96859
27167,65.96859
27200,65.96859
27233,65.96859
27267,65.45454000000001
27300,65.45454000000001
27333,65.45454000000001
27367,65.45454000000001
27400,65.45454000000001
27433,65.45454000000001
27467,65.45454000000001
27500,65.45454000000001
27533,65.45454000000001
27567,65.45454000000001
27600,65.45454000000001
27633,65.45454000000001
27667,65.45454000000001
27700,65.45454000000001
27733,65.45454000000001
27767,65.45454000000001
27800,65.45454000000001
27833,65.45454000000001
27867,65.45454000000001
27900,63.63636
27933,63.63636
27967,63.63636
28000,63.63636
28033,63.63636
28067,63.63636
28100,63.63636
28133,62.42775
28167,62.42775
28200,62.42775
28233,62.42775
28267,62.42775
28300,62.42775
28333,62.42775
28367,62.42775
28400,62.42775
28433,62.42775
28467,62.42775
28500,62.42775
28533,62.42775
28567,62.42775
28600,62.42775
28633,62.42775
28667,62.42775
28700,62.42775
28733,62.42775
28767,62.42775
28800,62.42775
28833,62.42775
28867,62.37624
28900,62.37624
28933,62.37624
28967,60.67416
29000,60.67416
29033,60.67416
29067,60.67416
29100,60.67416
29133,60.67416
29167,60.67416
29200,61.01695
29233,61.01695
29267,61.01695
29300,61.01695
29333,61.01695
29367,61.01695
29400,61.01695
29433,61.01695
29467,61.01695
29500,61.01695
29533,61.01695
29567,61.01695
29600,61.01695
29633,61.01695
29667,62.37624
29700,62.37624
29733,62.37624
29767,60.33519
29800,60.33519
29833,60.33519
29867,60.33519
29900,60.33519
29933,60.33519
29967,60.33519
30000,60.33519
30033,60.33519
30067,60.33519
30100,60.33519
30133,60.33519
30167,60.33519
30200,60.33519
30233,60.33519
30267,60.33519
30300,60.33519
30333,60.33519
30367,60.33519
30400,60.33519
30433,60.33519
30467,60.33519
30500,60.33519
30533,60.0
30567,61.01695
30600,61.01695
30633,61.01695
30667,61.01695
30700,61.01695
30733,61.01695
30767,61.01695
30800,61.01695
30833,61.01695
30867,61.01695
30900,61.01695
30933,61.01695
30967,61.01695
31000,61.01695
31033,61.01695
31067,61.01695
31100,61.01695
31133,61.01695
31167,61.01695
31200,61.01695
31233,61.01695
31267,61.01695
31300,61.01695
31333,61.01695
31367,61.01695
31400,61.01695
31433,61.01695
31467,61.01695
31500,62.42775
31533,62.42775
31567,62.42775
31600,62.42775
31633,62.42775
31667,62.42775
31700,62.42775
31733,62.42775
31767,62.42775
31800,62.42775
31833,62.42775
31867,62.42775
31900,62.42775
31933,62.42775
31967,62.42775
32000,62.42775
32033,62.42775
32067,62.42775
32100,62.42775
32133,62.42775
32167,62.42775
32200,62.42775
32233,62.42775
32267,62.42775
32300,62.42775
32333,62.42775
32367,62.42775
32400,63.0
32433,63.0
32467,63.0
32500,63.0
32533,63.0
32567,64.28571
32600,64.28571
32633,64.28571
32667,64.28571
32700,64.28571
32733,64.28571
32767,64.28571
32800,64.28571
32833,64.28571
32867,64.28571
32900,64.28571
32933,64.28571
32967,64.28571
33000,64.28571
33033,64.28571
33067,64.28571
33100,64.28571
33133,64.28571
33167,64.28571
33200,64.28571
33233,64.28571
33267,64.28571
33300,64.28571
33333,64.28571
33367,64.28571
33400,64.28571
33433,64.28571
33467,64.28571
33500,64.28571
33533,64.28571
33567,64.28571
33600,61.76471
33633,63.15789
33667,63.15789
33700,63.15789
33733,63.15789
33767,63.15789
33800,63.15789
33833,63.15789
33867,63.15789
33900,63.15789
33933,63.15789
33967,63.15789
34000,63.15789
34033,63.15789
34067,63.15789
34100,63.15789
34133,63.15789
34167,63.15789
34200,63.15789
34233,63.15789
34267,63.15789
34300,63.15789
34333,63.15789
34367,63.15789
34400,63.15789
34433,63.15789
34467,63.15789
34500,63.15789
34533,63.31658
34567,63.31658
34600,63.31658
34633,63.31658
34667,63.31658
34700,63.31658
34733,63.15789
34767,63.15789
34800,63.15789
34833,63.15789
34867,63.15789
34900,63.15789
34933,63.15789
34967,63.15789
35000,63.15789
35033,63.15789
35067,63.15789
35100,63.15789
35133,63.15789
35167,63.15789
35200,63.15789
35233,63.15789
35267,63.15789
35300,63.15789
35333,63.15789
35367,63.15789
35400,63.15789
35433,63.15789
35467,63.15789
35500,63.0
35533,63.0
35567,63.0
35600,63.0
35633,63.0
35667,61.71429000000001
35700,61.71429000000001
35733,61.71429000000001
35767,61.71429000000001
35800,61.71429000000001
35833,61.71429000000001
35867,61.71429000000001
35900,61.71429000000001
35933,61.71429000000001
35967,61.71429000000001
36000,61.71429000000001
36033,61.71429000000001
36067,61.71429000000001
36100,61.71429000000001
36133,61.71429000000001
36167,61.71429000000001
36200,61.71429000000001
36233,61.71429000000001
36267,61.71429000000001
36300,61.71429000000001
36333,61.71429000000001
36367,61.71429000000001
36400,62.37624
36433,62.37624
36467,62.37624
36500,61.71429000000001
36533,61.71429000000001
36567,61.71429000000001
36600,61.71429000000001
36633,61.71429000000001
36667,61.71429000000001
36700,61.71429000000001
36733,61.71429000000001
36767,61.71429000000001
36800,61.71429000000001
36833,61.71429000000001
36867,61.71429000000001
36900,61.71429000000001
36933,61.71429000000001
36967,61.71429000000001
37000,61.71429000000001
37033,61.71429000000001
37067,61.71429000000001
37100,61.71429000000001
37133,61.71429000000001
37167,61.71429000000001
37200,61.71429000000001
37233,61.71429000000001
37267,61.71429000000001
37300,61.71429000000001
37333,62.06896999999999
37367,62.06896999999999
37400,61.71429000000001
37433,61.71429000000001
37467,61.71429000000001
37500,61.71429000000001
37533,61.71429000000001
37567,61.71429000000001
37600,61.71429000000001
37633,61.71429000000001
37667,61.71429000000001
37700,61.71429000000001
37733,61.71429000000001
37767,61.71429000000001
37800,61.71429000000001
37833,61.71429000000001
37867,61.71429000000001
37900,61.71429000000001
37933,61.71429000000001
37967,61.71429000000001
38000,61.71429000000001
38033,61.71429000000001
38067,61.71429000000001
38100,61.71429000000001
38133,61.71429000000001
38167,63.0
38200,63.0
38233,63.0
38267,63.0
38300,63.0
38333,62.42775
38367,62.42775
38400,62.42775
38433,62.42775
38467,62.42775
38500,62.42775
38533,62.42775
38567,62.42775
38600,62.42775
38633,62.42775
38667,62.42775
38700,62.42775
38733,62.42775
38767,62.42775
38800,62.42775
38833,62.42775
38867,62.42775
38900,62.42775
38933,62.42775
38967,63.95939
39000,62.42775
39033,63.31658
39067,63.31658
39100,63.63636
39133,63.31658
39167,63.31658
39200,63.31658
39233,65.85365999999999
39267,65.85365999999999
39300,65.85365999999999
39333,65.85365999999999
39367,65.85365999999999
39400,65.85365999999999
39433,65.85365999999999
39467,65.85365999999999
39500,65.85365999999999
39533,65.85365999999999
39567,65.85365999999999
39600,65.85365999999999
39633,65.85365999999999
39667,65.85365999999999
39700,65.85365999999999
39733,65.85365999999999
39767,65.85365999999999
39800,65.85365999999999
39833,65.85365999999999
39867,66.25766999999999
39900,66.25766999999999
39933,66.25766999999999
39967,66.25766999999999
40000,65.28497
40033,65.28497
40067,65.28497
40100,65.28497
40133,65.28497
40167,65.28497
40200,65.28497
40233,65.28497
40267,65.28497
40300,65.28497
40333,65.28497
40367,65.28497
40400,65.85365999999999
40433,65.85365999999999
40467,65.85365999999999
40500,65.85365999999999
40533,65.85365999999999
40567,65.85365999999999
40600,65.85365999999999
40633,65.85365999999999
40667,65.85365999999999
40700,65.85365999999999
40733,65.85365999999999
40767,65.85365999999999
40800,65.85365999999999
40833,65.85365999999999
40867,65.85365999999999
40900,65.85365999999999
40933,65.85365999999999
40967,65.85365999999999
41000,65.85365999999999
41033,64.61539
41067,64.61539
41100,64.61539
41133,64.61539
41167,64.61539
41200,64.28571
41233,64.28571
41267,64.28571
41300,64.28571
41333,64.28571
41367,64.67066
41400,64.67066
41433,65.06024000000001
41467,65.06024000000001
41500,65.06024000000001
41533,65.06024000000001
41567,65.06024000000001
41600,65.06024000000001
41633,65.06024000000001
41667,65.06024000000001
41700,65.06024000000001
41733,65.06024000000001
41767,65.06024000000001
41800,65.06024000000001
41833,65.06024000000001
41867,65.06024000000001
41900,65.06024000000001
41933,65.06024000000001
41967,65.06024000000001
42000,64.94846
42033,64.94846
42067,64.94846
42100,64.94846
42133,64.94846
42167,64.94846
42200,64.94846
42233,64.94846
42267,64.94846
42300,64.94846
42333,64.67066
42367,64.67066
42400,64.67066
42433,64.67066
42467,64.67066
42500,64.67066
42533,64.67066
42567,64.67066
42600,64.67066
42633,64.67066
42667,64.67066
42700,64.67066
42733,64.67066
42767,64.67066
42800,64.67066
42833,64.67066
42867,65.28497
42900,65.28497
42933,65.28497
42967,65.28497
43000,65.28497
43033,65.28497
43067,65.28497
43100,65.28497
43133,65.28497
43167,65.28497
43200,65.28497
43233,65.45454000000001
43267,65.45454000000001
43300,65.45454000000001
43333,65.45454000000001
43367,65.45454000000001
43400,65.45454000000001
43433,65.45454000000001
43467,65.45454000000001
43500,65.45454000000001
43533,65.45454000000001
43567,65.45454000000001
43600,65.45454000000001
43633,65.45454000000001
43667,65.45454000000001
43700,65.45454000000001
43733,65.625
43767,65.625
43800,65.625
43833,65.625
43867,65.625
43900,65.625
43933,65.625
43967,65.625
44000,65.625
44033,65.625
44067,65.625
44100,65.625
44133,65.625
44167,64.67066
44200,64.67066
44233,64.67066
44267,64.67066
44300,64.67066
44333,64.67066
44367,64.67066
44400,64.67066
44433,64.67066
44467,64.67066
44500,64.67066
44533,64.67066
44567,64.67066
44600,64.67066
44633,64.67066
44667,64.67066
44700,64.67066
44733,64.67066
44767,63.63636
44800,63.63636
44833,63.63636
44867,63.63636
44900,63.63636
44933,63.63636
44967,63.63636
45000,62.42775
45033,62.42775
45067,62.42775
45100,62.42775
45133,62.42775
45167,62.42775
45200,62.42775
45233,62.42775
45267,62.42775
45300,62.42775
45333,62.42775
45367,62.42775
45400,62.42775
45433,62.42775
45467,62.42775
45500,62.42775
45533,62.42775
45567,62.42775
45600,62.42775
45633,62.42775
45667,62.42775
45700,62.42775
45733,62.37624
45767,62.37624
45800,62.37624
45833,62.7907
45867,62.7907
45900,62.7907
45933,62.7907
45967,62.7907
46000,62.7907
46033,62.7907
46067,62.42775
46100,62.42775
46133,62.42775
46167,62.42775
46200,62.42775
46233,62.42775
46267,62.42775
46300,62.42775
46333,62.42775
46367,62.42775
46400,62.42775
46433,62.42775
46467,62.42775
46500,62.42775
46533,62.42775
46567,62.42775
46600,62.42775
46633,62.42775
46667,62.42775
46700,62.42775
46733,62.42775
46767,62.42775
46800,61.76471
46833,63.380280000000006
46867,62.42775
46900,62.42775
46933,62.06896999999999
46967,62.06896999999999
47000,62.06896999999999
47033,62.06896999999999
47067,61.71429000000001
47100,61.71429000000001
47133,61.71429000000001
47167,61.71429000000001
47200,61.71429000000001
47233,61.71429000000001
47267,61.71429000000001
47300,61.71429000000001
47333,61.71429000000001
47367,61.71429000000001
47400,61.71429000000001
47433,61.71429000000001
47467,61.71429000000001
47500,61.71429000000001
47533,61.71429000000001
47567,61.71429000000001
47600,61.71429000000001
47633,61.71429000000001
47667,61.71429000000001
47700,61.71429000000001
47733,61.71429000000001
47767,61.71429000000001
47800,61.71429000000001
47833,61.71429000000001
47867,61.22449
47900,61.22449
47933,61.22449
47967,60.0
48000,60.0
48033,60.0
48067,60.0
48100,60.0
48133,60.0
48167,60.0
48200,60.0
48233,60.33519
48267,60.33519
48300,60.33519
48333,60.33519
48367,60.33519
48400,60.33519
48433,60.33519
48467,60.33519
48500,60.33519
48533,60.33519
48567,60.33519
48600,60.33519
48633,60.33519
48667,60.33519
48700,60.33519
48733,60.33519
48767,60.33519
48800,60.33519
48833,60.33519
48867,60.33519
48900,60.33519
48933,60.33519
48967,60.33519
49000,60.33519
49033,60.33519
49067,60.33519
49100,60.33519
49133,60.33519
49167,60.33519
49200,60.33519
49233,60.33519
49267,60.33519
49300,60.33519
49333,60.33519
49367,60.33519
49400,60.33519
49433,60.33519
49467,60.33519
49500,60.33519
49533,60.33519
49567,60.33519
49600,60.33519
49633,60.33519
49667,59.21053000000001
49700,59.21053000000001
49733,59.21053000000001
49767,59.21053000000001
49800,59.21053000000001
49833,59.21053000000001
49867,59.21053000000001
49900,58.37838000000001
49933,58.37838000000001
49967,58.37838000000001
50000,58.37838000000001
50033,58.37838000000001
50067,58.37838000000001
50100,58.37838000000001
50133,58.37838000000001
50167,58.37838000000001
50200,58.37838000000001
50233,58.37838000000001
50267,58.37838000000001
50300,58.37838000000001
50333,58.37838000000001
50367,58.37838000000001
50400,58.37838000000001
50433,58.37838000000001
50467,58.37838000000001
50500,58.37838000000001
50533,58.37838000000001
50567,58.06452
50600,58.06452
50633,58.06452
50667,58.06452
50700,58.06452
50733,58.06452
50767,58.06452
50800,58.06452
50833,58.06452
50867,58.69565
50900,58.69565
50933,58.69565
50967,58.69565
51000,58.69565
51033,58.69565
51067,58.69565
51100,58.69565
51133,58.69565
51167,58.69565
51200,58.69565
51233,58.69565
51267,58.69565
51300,58.69565
51333,58.69565
51367,58.69565
51400,58.69565
51433,58.69565
51467,58.69565
51500,58.69565
51533,58.69565
51567,58.82353000000001
51600,58.82353000000001
51633,58.82353000000001
51667,58.82353000000001
51700,58.82353000000001
51733,58.82353000000001
51767,58.82353000000001
51800,58.82353000000001
51833,59.34066
51867,59.01639
51900,59.01639
51933,59.01639
51967,59.01639
52000,59.01639
52033,59.01639
52067,59.01639
52100,59.01639
52133,59.01639
52167,59.01639
52200,59.01639
52233,59.01639
52267,59.01639
52300,59.01639
52333,59.01639
52367,59.01639
52400,59.01639
52433,59.01639
52467,59.01639
52500,59.01639
52533,59.01639
52567,59.01639
52600,59.60265
52633,59.60265
52667,59.60265
52700,59.60265
52733,59.60265
52767,59.60265
52800,60.33519
52833,60.33519
52867,60.33519
52900,60.33519
52933,60.33519
52967,60.33519
53000,60.33519
53033,60.33519
53067,60.33519
53100,60.33519
53133,60.33519
53167,60.33519
53200,60.33519
53233,60.33519
53267,60.33519
53300,60.33519
53333,60.33519
53367,60.33519
53400,60.33519
53433,60.33519
53467,60.33519
53500,60.33519
53533,60.33519
53567,60.33519
53600,60.33519
53633,60.33519
53667,61.64384
53700,61.64384
53733,61.64384
53767,63.52941
53800,63.52941
53833,63.52941
53867,63.52941
53900,63.52941
53933,63.52941
53967,63.52941
54000,63.52941
54033,63.52941
54067,63.52941
54100,63.52941
54133,63.52941
54167,63.52941
54200,63.52941
54233,66.66666
54267,66.31579
54300,66.31579
54333,66.31579
54367,66.31579
54400,66.31579
54433,66.31579
54467,66.31579
54500,66.31579
54533,66.31579
54567,66.31579
54600,66.31579
54633,66.31579
54667,66.31579
54700,66.31579
54733,66.31579
54767,54.87805
54800,54.87805
54833,54.87805
54867,54.87805
54900,54.87805
54933,54.87805
54967,54.87805
55000,54.87805
55033,54.87805
55067,54.87805
55100,54.87805
55133,54.87805
55167,54.87805
55200,54.87805
55233,54.87805
55267,55.6701
55300,55.6701
55333,55.6701
55367,55.6701
55400,55.6701
55433,55.6701
55467,55.38462
55500,55.38462
55533,55.38462
55567,55.38462
55600,55.38462
55633,55.55556
55667,55.55556
55700,55.55556
55733,55.55556
55767,55.55556
55800,55.55556
55833,55.55556
55867,55.55556
55900,55.55556
55933,55.90062
55967,55.90062
56000,55.90062
56033,55.90062
56067,55.90062
56100,55.90062
56133,55.90062
56167,57.44681
56200,55.90062
56233,56.84211
56267,56.84211
56300,56.84211
56333,56.84211
56367,56.84211
56400,56.84211
56433,56.84211
56467,56.84211
56500,56.84211
56533,56.84211
56567,56.84211
56600,56.84211
56633,56.84211
56667,56.84211
56700,56.84211
56733,55.90062
56767,55.90062
56800,55.90062
56833,55.90062
56867,55.90062
56900,55.90062
56933,55.90062
56967,55.90062
57000,55.90062
57033,55.90062
57067,55.90062
57100,57.75401
57133,57.44681
57167,57.44681
57200,57.44681
57233,57.44681
57267,57.44681
57300,57.44681
57333,57.44681
57367,57.44681
57400,57.44681
57433,57.44681
57467,57.44681
57500,57.44681
57533,57.44681
57567,57.44681
57600,57.44681
57633,57.44681
57667,57.44681
57700,56.96202
57733,56.96202
57767,56.96202
57800,56.96202
57833,56.96202
57867,57.32484
57900,57.32484
57933,57.32484
57967,57.32484
58000,57.32484
58033,57.32484
58067,58.06452
58100,58.06452
58133,58.06452
58167,58.06452
58200,58.06452
58233,58.06452
58267,58.06452
58300,58.06452
58333,58.06452
58367,58.06452
58400,58.06452
58433,58.06452
58467,58.06452
58500,58.06452
58533,58.06452
58567,58.06452
58600,58.06452
58633,58.06452
58667,58.06452
58700,56.96202
58733,56.96202
58767,56.96202
58800,56.96202
58833,56.96202
58867,56.96202
58900,56.96202
58933,56.96202
58967,56.96202
59000,56.96202
59033,56.96202
59067,56.96202
59100,57.14286
59133,57.14286
59167,57.14286
59200,57.14286
59233,57.14286
59267,57.14286
59300,57.14286
59333,57.14286
59367,57.14286
59400,57.14286
59433,57.14286
59467,57.14286
59500,57.14286
59533,57.14286
59567,57.14286
59600,57.14286
59633,62.06896999999999
59667,62.06896999999999
59700,62.06896999999999
59733,62.06896999999999
59767,62.06896999999999
59800,62.06896999999999
59833,62.06896999999999
59867,62.06896999999999
59900,62.06896999999999
59933,62.06896999999999
59967,62.06896999999999
60000,62.06896999999999
60033,62.06896999999999
60067,62.06896999999999
60100,62.06896999999999
60133,62.06896999999999
60167,61.01695
60200,61.01695
60233,61.01695
60267,61.01695
60300,60.67416
60333,60.67416
60367,60.33519
60400,60.33519
60433,60.33519
60467,60.33519
60500,60.33519
60533,60.33519
60567,60.33519
60600,60.33519
60633,60.33519
60667,60.33519
60700,60.33519
60733,60.33519
60767,60.33519
60800,60.33519
60833,60.33519
60867,60.33519
60900,60.33519
60933,60.33519
60967,60.33519
61000,60.33519
61033,60.33519
61067,60.33519
61100,60.81081
61133,60.81081
61167,60.81081
61200,60.81081
61233,60.81081
61267,60.81081
61300,60.81081
61333,60.81081
61367,59.34066
61400,59.34066
61433,59.34066
61467,59.34066
61500,59.01639
61533,59.01639
61567,59.01639
61600,59.01639
61633,59.01639
61667,59.01639
61700,59.01639
61733,59.01639
61767,59.01639
61800,59.01639
61833,59.01639
61867,59.01639
61900,59.01639
61933,59.01639
61967,59.01639
62000,59.01639
62033,59.01639
62067,59.01639
62100,58.06452
62133,58.06452
62167,58.06452
62200,58.06452
62233,58.06452
62267,58.06452
62300,58.06452
62333,58.06452
62367,58.06452
62400,58.37838000000001
62433,58.37838000000001
62467,58.37838000000001
62500,58.37838000000001
62533,58.37838000000001
62567,58.37838000000001
62600,58.37838000000001
62633,58.37838000000001
62667,58.37838000000001
62700,58.37838000000001
62733,58.37838000000001
62767,58.37838000000001
62800,58.37838000000001
62833,58.37838000000001
62867,58.37838000000001
62900,58.37838000000001
62933,58.37838000000001
62967,58.37838000000001
63000,58.37838000000001
63033,58.37838000000001
63067,56.60378000000001
63100,56.60378000000001
63133,56.60378000000001
63167,56.60378000000001
63200,56.60378000000001
63233,56.60378000000001
63267,56.60378000000001
63300,56.60378000000001
63333,56.60378000000001
63367,56.60378000000001
63400,57.14286
63433,57.14286
63467,57.14286
63500,57.14286
63533,57.14286
63567,57.14286
63600,57.14286
63633,57.14286
63667,57.14286
63700,57.14286
63733,57.14286
63767,57.14286
63800,57.14286
63833,57.14286
63867,57.14286
63900,57.14286
63933,56.25
63967,56.25
64000,56.25
64033,56.25
64067,56.25
64100,56.25
64133,56.25
64167,56.25
64200,56.25
64233,56.25
64267,56.25
64300,56.25
64333,56.25
64367,57.14286
64400,57.14286
64433,57.14286
64467,57.14286
64500,57.14286
64533,57.14286
64567,57.14286
64600,57.14286
64633,57.14286
64667,57.14286
64700,57.14286
64733,57.14286
64767,57.14286
64800,57.14286
64833,57.14286
64867,57.14286
64900,57.32484
64933,57.32484
64967,57.32484
65000,57.32484
65033,57.32484
65067,57.32484
65100,57.32484
65133,57.32484
65167,57.32484
65200,57.32484
65233,57.32484
65267,57.32484
65300,57.32484
65333,58.06452
65367,58.06452
65400,58.06452
65433,58.06452
65467,58.06452
65500,58.06452
65533,58.06452
65567,58.06452
65600,58.06452
65633,58.06452
65667,58.06452
65700,58.06452
65733,58.06452
65767,58.06452
65800,58.06452
65833,58.06452
65867,58.06452
65900,58.06452
65933,58.06452
65967,58.82353000000001
66000,58.82353000000001
66033,58.82353000000001
66067,58.82353000000001
66100,58.82353000000001
66133,58.82353000000001
66167,58.82353000000001
66200,58.82353000000001
66233,58.82353000000001
66267,58.82353000000001
66300,58.82353000000001
66333,59.01639
66367,59.01639
66400,59.01639
66433,59.01639
66467,59.01639
66500,59.01639
66533,59.01639
66567,59.01639
66600,59.01639
66633,59.01639
66667,59.01639
66700,59.01639
66733,59.01639
66767,59.01639
66800,59.01639
66833,59.01639
66867,59.01639
66900,59.01639
66933,59.01639
66967,59.01639
67000,59.01639
67033,59.01639
67067,60.81081
67100,60.81081
67133,60.81081
67167,60.81081
67200,60.81081
67233,60.81081
67267,60.81081
67300,60.81081
67333,60.81081
67367,60.33519
67400,60.33519
67433,60.33519
67467,60.33519
67500,60.33519
67533,60.33519
67567,60.33519
67600,60.33519
67633,60.33519
67667,60.33519
67700,60.33519
67733,60.33519
67767,60.33519
67800,60.33519
67833,60.33519
67867,60.33519
67900,60.33519
67933,60.33519
67967,60.33519
68000,60.33519
68033,60.33519
68067,60.33519
68100,60.33519
68133,60.33519
68167,60.33519
68200,60.33519
68233,60.40268
68267,60.40268
68300,61.01695
68333,60.40268
68367,60.40268
68400,60.33519
68433,60.33519
68467,60.33519
68500,60.33519
68533,60.33519
68567,60.33519
68600,60.33519
68633,60.33519
68667,60.33519
68700,60.33519
68733,60.33519
68767,60.33519
68800,60.33519
68833,60.33519
68867,60.33519
68900,60.33519
68933,60.33519
68967,60.33519
69000,60.33519
69033,60.33519
69067,60.33519
69100,60.33519
69133,60.33519
69167,60.33519
69200,60.33519
69233,60.0
69267,60.0
69300,60.0
69333,60.33519
69367,60.33519
69400,60.33519
69433,60.33519
69467,60.33519
69500,60.33519
69533,60.33519
69567,60.33519
69600,60.33519
69633,60.33519
69667,60.33519
69700,60.33519
69733,60.33519
69767,60.33519
69800,60.33519
69833,60.33519
69867,60.33519
69900,60.33519
69933,60.33519
69967,60.33519
70000,60.33519
70033,60.33519
70067,60.33519
70100,60.33519
70133,60.33519
70167,60.33519
70200,60.40268
70233,60.40268
70267,61.01695
70300,61.01695
70333,61.01695
70367,61.01695
70400,61.01695
70433,61.01695
70467,61.01695
70500,61.01695
70533,61.01695
70567,61.01695
70600,61.01695
70633,61.01695
70667,61.01695
70700,61.01695
70733,61.01695
70767,61.01695
70800,61.01695
70833,61.01695
70867,61.01695
70900,61.01695
70933,61.01695
70967,61.01695
71000,61.01695
71033,61.01695
71067,61.01695
71100,61.01695
71133,61.01695
71167,61.76471
71200,61.71429000000001
71233,61.71429000000001
71267,61.71429000000001
71300,61.71429000000001
71333,61.71429000000001
71367,61.71429000000001
71400,61.71429000000001
71433,61.71429000000001
71467,61.71429000000001
71500,61.71429000000001
71533,61.71429000000001
71567,61.71429000000001
71600,61.71429000000001
71633,61.71429000000001
71667,61.71429000000001
71700,61.71429000000001
71733,61.71429000000001
71767,61.71429000000001
71800,61.71429000000001
71833,61.71429000000001
71867,61.71429000000001
71900,61.71429000000001
71933,61.71429000000001
71967,61.71429000000001
72000,61.71429000000001
72033,61.71429000000001
72067,62.37624
72100,62.37624
72133,62.37624
72167,62.7907
72200,62.7907
72233,62.7907
72267,62.7907
72300,62.7907
72333,62.7907
72367,62.7907
72400,62.7907
72433,62.7907
72467,62.7907
72500,62.7907
72533,62.7907
72567,62.7907
72600,62.7907
72633,62.7907
72667,62.7907
72700,62.7907
72733,62.7907
72767,62.7907
72800,62.7907
72833,62.7907
72867,62.7907
72900,62.7907
72933,62.7907
72967,62.7907
73000,62.7907
73033,62.7907
73067,62.7907
73100,62.7907
73133,62.7907
73167,63.82979
73200,61.71429000000001
73233,61.71429000000001
73267,61.71429000000001
73300,61.71429000000001
73333,61.71429000000001
73367,61.71429000000001
73400,61.71429000000001
73433,61.71429000000001
73467,61.71429000000001
73500,61.71429000000001
73533,61.71429000000001
73567,61.71429000000001
73600,61.71429000000001
73633,61.71429000000001
73667,61.71429000000001
73700,61.71429000000001
73733,61.71429000000001
73767,61.71429000000001
73800,61.71429000000001
73833,61.71429000000001
73867,61.71429000000001
73900,61.71429000000001
73933,61.71429000000001
73967,61.71429000000001
74000,61.71429000000001
74033,61.71429000000001
74067,61.71429000000001
74100,61.71429000000001
74133,61.71429000000001
74167,61.71429000000001
74200,62.06896999999999
74233,61.36364
74267,61.36364
74300,61.36364
74333,61.36364
74367,61.36364
74400,61.36364
74433,61.36364
74467,61.36364
74500,61.36364
74533,61.36364
74567,61.36364
74600,61.36364
74633,61.36364
74667,61.36364
74700,61.36364
74733,61.36364
74767,61.36364
74800,61.36364
74833,61.36364
74867,61.36364
74900,61.36364
74933,61.36364
74967,61.36364
75000,61.36364
75033,61.36364
75067,61.36364
75100,61.36364
75133,61.36364
75167,61.36364
75200,61.36364
75233,61.01695
75267,61.01695
75300,61.01695
75333,61.01695
75367,61.01695
75400,61.01695
75433,61.01695
75467,61.01695
75500,61.01695
75533,61.01695
75567,61.01695
75600,61.01695
75633,61.01695
75667,61.01695
75700,61.01695
75733,61.01695
75767,61.01695
75800,61.01695
75833,61.01695
75867,61.01695
75900,61.01695
75933,61.01695
75967,61.01695
76000,61.01695
76033,61.01695
76067,61.01695
76100,61.01695
76133,61.01695
76167,61.01695
76200,61.01695
76233,61.01695
76267,61.01695
76300,61.01695
76333,61.01695
76367,61.01695
76400,61.01695
76433,61.01695
76467,61.01695
76500,61.01695
76533,61.01695
76567,61.01695
76600,61.01695
76633,61.01695
76667,61.01695
76700,61.01695
76733,61.01695
76767,61.01695
76800,61.01695
76833,61.01695
76867,61.01695
76900,61.01695
76933,61.01695
76967,61.01695
77000,61.01695
77033,61.01695
77067,61.01695
77100,60.67416
77133,60.67416
77167,60.67416
77200,60.67416
77233,60.67416
77267,60.67416
77300,60.67416
77333,60.67416
77367,60.67416
77400,61.01695
77433,61.01695
77467,61.01695
77500,61.01695
77533,61.01695
77567,61.01695
77600,61.01695
77633,61.01695
77667,61.01695
77700,61.01695
77733,61.01695
77767,61.01695
77800,61.01695
77833,61.01695
77867,61.01695
77900,61.01695
77933,61.01695
77967,61.76471
78000,61.01695
78033,61.01695
78067,61.01695
78100,61.01695
78133,61.01695
78167,61.01695
78200,61.01695
78233,61.01695
78267,61.01695
78300,61.01695
78333,61.01695
78367,61.01695
78400,61.01695
78433,61.01695
78467,61.01695
78500,61.01695
78533,61.01695
78567,61.01695
78600,61.01695
78633,61.01695
78667,61.01695
78700,61.01695
78733,61.01695
78767,61.01695
78800,61.01695
78833,61.01695
78867,61.76471
78900,62.93706
78933,63.52941
78967,63.52941
79000,63.52941
79033,63.52941
79067,63.15789
79100,63.15789
79133,63.15789
79167,63.15789
79200,63.15789
79233,63.15789
79267,63.15789
79300,63.15789
79333,62.7907
79367,62.7907
79400,62.7907
79433,62.7907
79467,62.7907
79500,62.7907
79533,62.7907
79567,62.7907
79600,62.7907
79633,62.7907
79667,62.7907
79700,62.7907
79733,62.7907
79767,62.7907
79800,62.7907
79833,62.7907
79867,62.7907
79900,62.7907
79933,62.7907
79967,62.7907
80000,62.42775
80033,62.42775
80067,62.42775
80100,62.42775
80133,62.42775
80167,62.42775
80200,62.42775
80233,62.42775
80267,62.42775
80300,62.42775
80333,62.42775
80367,62.42775
80400,62.42775
80433,62.42775
80467,62.42775
80500,62.42775
80533,62.42775
80567,62.42775
80600,62.42775
80633,62.42775
80667,62.42775
80700,62.42775
80733,62.42775
80767,62.42775
80800,62.42775
80833,62.42775
80867,62.42775
80900,62.42775
80933,62.68657
80967,62.68657
81000,62.68657
81033,62.68657
81067,63.15789
81100,63.15789
81133,63.15789
81167,63.15789
81200,63.15789
81233,63.15789
81267,63.15789
81300,63.15789
81333,63.15789
81367,63.15789
81400,63.15789
81433,63.15789
81467,63.15789
81500,63.15789
81533,63.15789
81567,63.15789
81600,63.15789
81633,63.15789
81667,63.15789
81700,63.15789
81733,63.15789
81767,63.15789
81800,63.15789
81833,63.15789
81867,63.15789
81900,63.0
81933,63.0
81967,62.68657
82000,62.68657
82033,62.68657
82067,62.42775
82100,62.42775
82133,62.42775
82167,62.42775
82200,62.42775
82233,62.42775
82267,62.42775
82300,62.42775
82333,62.42775
82367,62.42775
82400,62.42775
82433,62.42775
82467,62.42775
82500,62.42775
82533,62.42775
82567,62.42775
82600,62.42775
82633,62.42775
82667,62.42775
82700,62.42775
82733,62.42775
82767,62.42775
82800,62.42775
82833,62.42775
82867,62.42775
82900,62.42775
82933,62.42775
82967,62.42775
83000,61.64384
83033,60.33519
83067,60.33519
83100,60.33519
83133,60.33519
83167,60.33519
83200,60.33519
83233,60.33519
83267,60.33519
83300,60.33519
83333,60.33519
83367,60.33519
83400,60.33519
83433,60.33519
83467,60.33519
83500,60.33519
83533,60.33519
83567,60.33519
83600,60.33519
83633,60.33519
83667,60.33519
83700,60.33519
83733,60.33519
83767,60.33519
83800,60.33519
83833,60.33519
83867,60.33519
83900,59.21053000000001
83933,59.21053000000001
83967,59.21053000000001
84000,59.21053000000001
84033,59.21053000000001
84067,59.01639
84100,59.01639
84133,59.01639
84167,59.01639
84200,59.01639
84233,59.01639
84267,59.01639
84300,59.01639
84333,59.01639
84367,59.01639
84400,59.01639
84433,59.01639
84467,59.01639
84500,59.01639
84533,59.01639
84567,59.01639
84600,59.01639
84633,59.01639
84667,59.01639
84700,59.01639
84733,59.01639
84767,59.01639
84800,58.06452
84833,58.06452
84867,58.06452
84900,58.06452
84933,58.06452
84967,58.06452
85000,58.06452
85033,58.06452
85067,58.06452
85100,58.37838000000001
85133,58.37838000000001
85167,58.06452
85200,58.06452
85233,58.06452
85267,58.06452
85300,58.06452
85333,58.06452
85367,58.06452
85400,58.06452
85433,58.06452
85467,58.06452
85500,58.06452
85533,58.06452
85567,58.06452
85600,58.06452
85633,58.06452
85667,58.06452
85700,58.06452
85733,58.82353000000001
85767,58.82353000000001
85800,58.82353000000001
85833,58.82353000000001
85867,58.82353000000001
85900,58.82353000000001
85933,58.82353000000001
85967,58.82353000000001
86000,58.82353000000001
86033,58.82353000000001
86067,58.82353000000001
86100,58.82353000000001
86133,58.82353000000001
86167,58.37838000000001
86200,58.37838000000001
86233,58.37838000000001
86267,58.37838000000001
86300,58.37838000000001
86333,57.75401
86367,57.75401
86400,57.75401
86433,57.75401
86467,57.75401
86500,57.75401
86533,57.75401
86567,57.75401
86600,57.75401
86633,57.75401
86667,57.75401
86700,57.75401
86733,57.75401
86767,57.75401
86800,57.75401
86833,56.60378000000001
86867,56.60378000000001
86900,56.60378000000001
86933,56.60378000000001
86967,56.60378000000001
87000,56.96202
87033,56.96202
87067,56.96202
87100,56.96202
87133,56.96202
87167,56.96202
87200,57.44681
87233,57.44681
87267,57.44681
87300,57.44681
87333,57.44681
87367,57.44681
87400,57.44681
87433,57.44681
87467,57.44681
87500,57.44681
87533,57.44681
87567,57.44681
87600,57.44681
87633,57.44681
87667,57.44681
87700,57.44681
87733,57.44681
87767,56.96202
87800,56.96202
87833,56.96202
87867,56.96202
87900,56.96202
87933,56.96202
87967,56.96202
88000,56.96202
88033,56.96202
88067,56.96202
88100,56.96202
88133,58.06452
88167,58.06452
88200,58.06452
88233,58.06452
88267,58.06452
88300,58.06452
88333,58.06452
88367,58.06452
88400,58.06452
88433,58.06452
88467,58.06452
88500,58.06452
88533,58.06452
88567,58.06452
88600,58.06452
88633,58.06452
88667,58.06452
88700,58.06452
88733,58.06452
88767,58.82353000000001
88800,58.82353000000001
88833,58.82353000000001
88867,58.82353000000001
88900,58.82353000000001
88933,58.82353000000001
88967,58.82353000000001
89000,58.82353000000001
89033,58.82353000000001
89067,58.82353000000001
89100,58.82353000000001
89133,59.01639
89167,59.01639
89200,59.01639
89233,59.01639
89267,59.01639
89300,59.01639
89333,59.01639
89367,59.01639
89400,59.01639
89433,59.01639
89467,59.01639
89500,59.01639
89533,59.01639
89567,59.01639
89600,59.01639
89633,59.01639
89667,59.01639
89700,59.01639
89733,59.01639
89767,59.01639
89800,59.01639
89833,59.01639
89867,59.21053000000001
89900,59.21053000000001
89933,59.21053000000001
89967,59.21053000000001
90000,59.21053000000001
90033,59.21053000000001
90067,60.0
90100,60.0
90133,60.0
90167,60.0
90200,60.0
90233,60.0
90267,60.0
90300,60.0
90333,60.0
90367,60.0
90400,60.0
90433,60.0
90467,60.0
90500,60.0
90533,60.0
90567,60.0
90600,60.0
90633,60.0
90667,60.0
90700,60.0
90733,60.0
90767,60.0
90800,60.0
90833,60.0
90867,60.0
90900,60.40268
90933,60.40268
90967,61.36364
91000,61.36364
91033,61.36364
91067,61.36364
91100,61.36364
91133,61.36364
91167,61.36364
91200,61.36364
91233,61.36364
91267,61.36364
91300,61.36364
91333,61.36364
91367,61.36364
91400,61.36364
91433,61.36364
91467,61.36364
91500,61.36364
91533,61.36364
91567,61.36364
91600,61.36364
91633,61.36364
91667,61.36364
91700,61.36364
91733,61.36364
91767,61.36364
91800,61.36364
91833,61.36364
91867,61.36364
91900,61.36364
91933,62.93706
91967,62.93706
92000,62.06896999999999
92033,62.06896999999999
92067,62.06896999999999
92100,62.06896999999999
92133,62.06896999999999
92167,62.06896999999999
92200,62.06896999999999
92233,62.06896999999999
92267,62.06896999999999
92300,62.06896999999999
92333,62.06896999999999
92367,62.06896999999999
92400,62.06896999999999
92433,62.06896999999999
92467,62.06896999999999
92500,62.06896999999999
92533,62.06896999999999
92567,62.06896999999999
92600,62.06896999999999
92633,62.06896999999999
92667,62.06896999999999
92700,62.06896999999999
92733,62.06896999999999
92767,62.06896999999999
92800,62.06896999999999
92833,62.06896999999999
92867,62.06896999999999
92900,62.06896999999999
92933,62.06896999999999
92967,62.06896999999999
93000,62.06896999999999
93033,61.71429000000001
93067,61.71429000000001
93100,61.71429000000001
93133,61.71429000000001
93167,61.71429000000001
93200,61.71429000000001
93233,61.71429000000001
93267,61.71429000000001
93300,61.71429000000001
93333,61.71429000000001
93367,61.71429000000001
93400,61.71429000000001
93433,61.71429000000001
93467,61.71429000000001
93500,61.71429000000001
93533,61.71429000000001
93567,61.71429000000001
93600,61.71429000000001
93633,61.71429000000001
93667,61.71429000000001
93700,61.71429000000001
93733,61.71429000000001
93767,61.71429000000001
93800,61.71429000000001
93833,61.71429000000001
93867,61.71429000000001
93900,61.71429000000001
93933,61.71429000000001
93967,61.71429000000001
94000,62.06896999999999
94033,61.71429000000001
94067,61.71429000000001
94100,61.71429000000001
94133,61.71429000000001
94167,61.71429000000001
94200,61.71429000000001
94233,61.71429000000001
94267,61.71429000000001
94300,61.71429000000001
94333,61.71429000000001
94367,61.71429000000001
94400,61.71429000000001
94433,61.71429000000001
94467,61.71429000000001
94500,61.71429000000001
94533,61.71429000000001
94567,61.71429000000001
94600,61.71429000000001
94633,61.71429000000001
94667,61.71429000000001
94700,61.71429000000001
94733,61.71429000000001
94767,61.71429000000001
94800,61.71429000000001
94833,61.71429000000001
94867,61.71429000000001
94900,61.71429000000001
94933,61.71429000000001
94967,61.71429000000001
95000,61.71429000000001
95033,61.71429000000001
95067,61.71429000000001
95100,61.71429000000001
95133,61.71429000000001
95167,61.71429000000001
95200,61.71429000000001
95233,61.71429000000001
95267,61.71429000000001
95300,61.71429000000001
95333,61.71429000000001
95367,61.71429000000001
95400,61.71429000000001
95433,61.71429000000001
95467,61.71429000000001
95500,61.71429000000001
95533,61.71429000000001
95567,61.71429000000001
95600,61.71429000000001
95633,61.71429000000001
95667,61.71429000000001
95700,61.71429000000001
95733,61.71429000000001
95767,61.71429000000001
95800,61.71429000000001
95833,61.71429000000001
95867,61.71429000000001
95900,61.71429000000001
95933,61.71429000000001
95967,61.22449
96000,60.67416
96033,61.22449
96067,60.0
96100,60.0
96133,60.0
96167,60.0
96200,60.0
96233,60.0
96267,60.0
96300,60.0
96333,60.0
96367,60.0
96400,60.0
96433,60.0
96467,60.0
96500,60.0
96533,60.0
96567,60.0
96600,60.0
96633,60.0
96667,60.0
96700,60.0
96733,60.0
96767,60.0
96800,60.0
96833,60.0
96867,60.0
96900,58.82353000000001
96933,58.82353000000001
96967,58.82353000000001
97000,58.82353000000001
97033,58.82353000000001
97067,58.82353000000001
97100,58.69565
97133,58.69565
97167,58.69565
97200,58.69565
97233,58.69565
97267,58.69565
97300,58.69565
97333,58.69565
97367,58.69565
97400,58.69565
97433,58.69565
97467,58.69565
97500,58.69565
97533,58.69565
97567,58.69565
97600,58.69565
97633,58.69565
97667,58.69565
97700,58.69565
97733,58.69565
97767,58.69565
97800,58.82353000000001
97833,58.82353000000001
97867,58.82353000000001
97900,58.82353000000001
97933,58.82353000000001
97967,58.82353000000001
98000,58.82353000000001
98033,58.82353000000001
98067,58.82353000000001
98100,58.82353000000001
98133,58.69565
98167,58.69565
98200,58.69565
98233,58.69565
98267,58.69565
98300,58.69565
98333,58.69565
98367,58.69565
98400,58.69565
98433,58.69565
98467,58.69565
98500,58.69565
98533,58.69565
98567,58.69565
98600,58.69565
98633,58.69565
98667,58.69565
98700,58.69565
98733,58.69565
98767,58.69565
98800,58.69565
98833,58.82353000000001
98867,58.82353000000001
98900,58.82353000000001
98933,58.82353000000001
98967,58.82353000000001
99000,58.82353000000001
99033,58.82353000000001
99067,58.82353000000001
99100,58.82353000000001
99133,58.82353000000001
99167,58.82353000000001
99200,58.82353000000001
99233,58.82353000000001
99267,57.75401
99300,57.75401
99333,57.75401
99367,58.06452
99400,58.06452
99433,58.06452
99467,58.06452
99500,58.06452
99533,58.06452
99567,58.06452
99600,58.06452
99633,58.06452
99667,58.06452
99700,58.06452
99733,58.06452
99767,58.06452
99800,58.06452
99833,58.06452
99867,56.96202
99900,56.96202
99933,56.96202
99967,56.96202
100000,56.96202
100033,56.96202
100067,56.96202
100100,56.96202
100133,56.96202
100167,56.96202
100200,56.96202
100233,57.44681
100267,57.44681
100300,57.44681
100333,57.44681
100367,57.44681
100400,57.44681
100433,57.44681
100467,57.44681
100500,57.44681
100533,57.44681
100567,57.44681
100600,57.44681
100633,57.44681
100667,57.44681
100700,57.44681
100733,57.44681
100767,57.44681
100800,56.96202
100833,56.96202
100867,56.96202
100900,56.96202
100933,56.96202
100967,56.96202
101000,56.96202
101033,56.96202
101067,56.96202
101100,56.96202
101133,56.96202
101167,56.96202
101200,57.75401
101233,57.75401
101267,57.75401
101300,57.75401
101333,57.75401
101367,57.75401
101400,57.75401
101433,57.75401
101467,57.75401
101500,57.75401
101533,57.75401
101567,57.75401
101600,57.75401
101633,57.75401
101667,57.75401
101700,57.75401
101733,57.75401
101767,57.75401
101800,58.44156
101833,58.44156
101867,58.44156
101900,58.44156
101933,58.44156
101967,58.44156
102000,58.44156
102033,58.44156
102067,60.33519
102100,60.33519
102133,60.33519
102167,60.33519
102200,60.33519
102233,60.33519
102267,60.33519
102300,60.33519
102333,60.33519
102367,60.33519
102400,60.33519
102433,60.33519
102467,60.33519
102500,60.33519
102533,60.33519
102567,60.33519
102600,60.33519
102633,60.33519
102667,60.33519
102700,60.33519
102733,60.33519
102767,60.33519
102800,60.33519
102833,60.33519
102867,60.33519
102900,61.22449
102933,61.22449
102967,61.22449
103000,61.22449
103033,60.81081
103067,60.81081
103100,60.81081
103133,60.81081
103167,60.81081
103200,59.66851
103233,59.66851
103267,59.66851
103300,59.66851
103333,59.66851
103367,59.66851
103400,59.66851
103433,59.66851
103467,59.66851
103500,59.66851
103533,59.66851
103567,59.66851
103600,59.66851
103633,59.66851
103667,59.66851
103700,59.66851
103733,59.66851
103767,59.66851
103800,59.66851
103833,59.66851
103867,59.66851
103900,59.66851
103933,59.60265
103967,59.60265
104000,59.60265
104033,59.60265
104067,60.67416
104100,59.60265
104133,60.67416
104167,60.67416
104200,60.67416
104233,60.67416
104267,60.67416
104300,60.67416
104333,60.67416
104367,60.67416
104400,60.67416
104433,60.67416
104467,60.67416
104500,60.67416
104533,60.67416
104567,60.67416
104600,60.67416
104633,60.67416
104667,60.67416
104700,60.67416
104733,60.33519
104767,60.33519
104800,60.33519
104833,60.33519
104867,60.33519
104900,60.33519
104933,60.33519
104967,61.64384
105000,61.64384
105033,61.64384
105067,61.64384
105100,61.64384
105133,61.64384
105167,61.64384
105200,61.64384
105233,61.64384
105267,61.64384
105300,61.64384
105333,61.64384
105367,61.22449
105400,61.22449
105433,61.22449
105467,61.22449
105500,61.22449
105533,61.22449
105567,61.22449
105600,56.5445
105633,56.5445
105667,56.5445
105700,56.5445
105733,56.5445
105767,56.5445
105800,56.5445
105833,56.5445
105867,56.5445
105900,56.5445
105933,56.5445
105967,56.5445
106000,56.25
106033,56.25
106067,55.55556
106100,55.55556
106133,55.55556
106167,55.55556
106200,55.55556
106233,55.55556
106267,55.55556
106300,55.55556
106333,55.55556
106367,55.55556
106400,55.55556
106433,55.55556
106467,55.55556
106500,55.55556
106533,55.55556
106567,55.55556
106600,55.55556
106633,55.55556
106667,55.55556
106700,55.6701
106733,55.55556
106767,55.10204
106800,55.38462
106833,55.10204
106867,55.10204
106900,55.10204
106933,55.10204
106967,55.10204
107000,55.10204
107033,55.10204
107067,53.89222
107100,53.89222
107133,53.89222
107167,53.89222
107200,53.89222
107233,53.89222
107267,53.89222
107300,53.89222
107333,53.89222
107367,54.21686999999999
107400,54.21686999999999
107433,54.21686999999999
107467,54.21686999999999
107500,54.21686999999999
107533,54.21686999999999
107567,54.21686999999999
107600,54.21686999999999
107633,54.21686999999999
107667,54.21686999999999
107700,55.38462
107733,55.38462
107767,55.38462
107800,55.38462
107833,55.38462
107867,55.38462
107900,55.38462
107933,55.38462
107967,55.38462
108000,55.38462
108033,52.94118
108067,52.94118
108100,52.94118
108133,52.94118
108167,52.94118
108200,52.94118
108233,52.94118
108267,52.94118
108300,52.94118
108333,52.94118
108367,52.94118
108400,52.94118
108433,52.94118
108467,52.94118
108500,52.94118
108533,52.94118
108567,55.10204
108600,52.94118
108633,54.54546
108667,54.54546
108700,54.54546
108733,54.54546
108767,54.54546
108800,54.54546
108833,54.54546
108867,54.87805
108900,54.87805
108933,54.87805
108967,54.87805
109000,54.87805
109033,54.87805
109067,54.87805
109100,54.87805
109133,54.87805
109167,54.87805
109200,54.87805
109233,54.87805
109267,54.87805
109300,54.87805
109333,54.87805
109367,54.87805
109400,54.87805
109433,57.44681
109467,57.44681
109500,57.44681
109533,57.44681
109567,57.44681
109600,57.44681
109633,57.44681
109667,57.44681
109700,57.44681
109733,57.44681
109767,57.44681
109800,57.44681
109833,57.44681
109867,57.44681
109900,57.44681
109933,57.44681
109967,57.44681
110000,56.60378000000001
110033,56.60378000000001
110067,56.60378000000001
110100,56.60378000000001
110133,56.60378000000001
110167,56.60378000000001
110200,56.60378000000001
110233,56.60378000000001
110267,56.60378000000001
110300,56.60378000000001
110333,56.60378000000001
110367,56.60378000000001
110400,57.44681
110433,56.60378000000001
110467,56.84211
110500,56.84211
110533,57.14286
110567,57.14286
110600,57.14286
110633,57.14286
110667,57.14286
110700,57.14286
110733,57.14286
110767,57.14286
110800,57.14286
110833,57.14286
110867,57.14286
110900,57.14286
110933,57.14286
110967,62.06896999999999
111000,62.06896999999999
111033,62.06896999999999
111067,62.06896999999999
111100,62.06896999999999
111133,62.06896999999999
111167,62.06896999999999
111200,62.06896999999999
111233,62.06896999999999
111267,63.52941
111300,63.52941
111333,63.52941
111367,63.52941
111400,63.52941
111433,63.52941
111467,63.52941
111500,63.52941
111533,63.52941
111567,63.52941
111600,63.52941
111633,63.52941
111667,63.52941
111700,63.52941
111733,63.52941
111767,63.52941
111800,63.52941
111833,63.52941
111867,63.52941
111900,63.52941
111933,63.52941
111967,63.52941
112000,63.52941
112033,63.52941
112067,63.52941
112100,63.52941
112133,64.28571
112167,64.28571
112200,64.28571
112233,64.28571
112267,64.28571
112300,64.28571
112333,64.28571
112367,64.28571
112400,64.28571
112433,66.66666
112467,66.66666
112500,66.66666
112533,66.66666
112567,66.66666
112600,66.66666
112633,66.66666
112667,66.66666
112700,66.66666
112733,66.66666
112767,66.66666
112800,66.66666
112833,66.66666
112867,66.66666
112900,66.66666
112933,66.66666
112967,66.66666
113000,66.66666
113033,66.66666
113067,66.66666
113100,65.96859
113133,65.96859
113167,65.96859
113200,65.96859
113233,65.96859
113267,65.96859
113300,65.96859
113333,65.96859
113367,65.96859
113400,65.96859
113433,65.96859
113467,65.96859
113500,65.96859
113533,65.96859
113567,66.66666
113600,66.66666
113633,66.66666
113667,66.66666
113700,66.66666
113733,66.66666
113767,66.66666
113800,66.66666
113833,66.66666
113867,66.66666
113900,66.66666
113933,66.66666
113967,66.66666
114000,66.66666
114033,66.66666
114067,66.66666
114100,66.66666
114133,66.66666
114167,66.66666
114200,66.66666
114233,66.66666
114267,66.66666
114300,66.66666
114333,66.66666
114367,66.66666
114400,66.66666
114433,66.66666
114467,66.66666
114500,66.66666
114533,67.08074
114567,67.08074
114600,67.08074
114633,67.08074
114667,67.08074
114700,67.08074
114733,67.08074
114767,67.08074
114800,67.08074
114833,67.08074
114867,69.23076999999999
114900,69.23076999999999
114933,69.23076999999999
114967,69.23076999999999
115000,69.23076999999999
115033,69.23076999999999
115067,69.23076999999999
115100,69.23076999999999
115133,69.23076999999999
115167,69.23076999999999
115200,67.08074
115233,67.08074
115267,67.08074
115300,67.08074
115333,67.08074
115367,69.23076999999999
115400,69.23076999999999
115433,69.23076999999999
115467,68.35443000000001
115500,68.35443000000001
115533,68.35443000000001
115567,68.47825999999999
115600,68.47825999999999
115633,68.47825999999999
115667,68.47825999999999
115700,68.47825999999999
115733,68.47825999999999
115767,68.47825999999999
115800,68.47825999999999
115833,68.47825999999999
115867,68.47825999999999
115900,68.47825999999999
115933,68.47825999999999
115967,68.47825999999999
116000,68.47825999999999
116033,68.47825999999999
116067,68.47825999999999
116100,68.47825999999999
116133,68.47825999999999
116167,68.47825999999999
116200,68.47825999999999
116233,68.47825999999999
116267,70.12987
116300,70.12987
116333,70.12987
116367,70.12987
116400,70.12987
116433,70.12987
116467,69.61326
116500,70.12987
116533,68.85246
116567,69.23076999999999
116600,69.23076999999999
116633,69.23076999999999
116667,69.23076999999999
116700,69.23076999999999
116733,69.23076999999999
116767,69.23076999999999
116800,69.23076999999999
116833,69.23076999999999
116867,69.23076999999999
116900,69.23076999999999
116933,69.23076999999999
116967,69.23076999999999
117000,69.23076999999999
117033,69.23076999999999
117067,69.23076999999999
117100,69.23076999999999
117133,69.23076999999999
117167,69.23076999999999
117200,69.23076999999999
117233,69.23076999999999
117267,68.78981
117300,68.78981
117333,68.78981
117367,68.78981
117400,68.47825999999999
117433,68.47825999999999
117467,68.47825999999999
117500,68.47825999999999
117533,68.47825999999999
117567,68.10811
117600,68.10811
117633,68.10811
117667,68.47825999999999
117700,68.47825999999999
117733,68.85246
117767,68.85246
117800,69.23076999999999
117833,69.61326
117867,69.61326
117900,74.6114
117933,74.6114
117967,74.6114
118000,74.6114
118033,80.59702
118067,81.0
118100,70.12987
118133,70.12987
118167,70.12987
118200,70.12987
118233,69.67742
118267,69.67742
118300,69.67742
118333,69.67742
118367,69.67742
118400,69.67742
118433,69.67742
118467,69.23076999999999
118500,65.96859
118533,65.96859
118567,65.96859
118600,65.96859
118633,65.96859
118667,65.96859
118700,65.96859
118733,65.96859
118767,65.96859
118800,65.96859
118833,65.96859
118867,65.96859
118900,65.96859
118933,65.96859
118967,67.08074
119000,67.08074
119033,67.08074
119067,67.08074
119100,67.08074
119133,67.08074
119167,67.08074
119200,67.08074
119233,67.08074
119267,67.08074
119300,67.08074
119333,67.08074
119367,67.37968000000001
119400,67.37968000000001
119433,67.37968000000001
119467,67.37968000000001
119500,67.37968000000001
119533,67.37968000000001
119567,67.37968000000001
119600,67.37968000000001
119633,67.37968000000001
119667,67.37968000000001
119700,67.37968000000001
119733,67.37968000000001
119767,67.37968000000001
119800,67.37968000000001
119833,67.37968000000001
119867,67.37968000000001
119900,67.37968000000001
119933,67.37968000000001
119967,66.66666
120000,66.66666
120033,66.66666
120067,66.66666
120100,66.66666
120133,66.25766999999999
120167,66.25766999999999
120200,66.25766999999999
120233,66.25766999999999
120267,66.25766999999999
120300,66.25766999999999
120333,66.25766999999999
120367,66.25766999999999
120400,64.94846
120433,64.94846
120467,64.94846
120500,64.94846
120533,64.94846
120567,64.94846
120600,64.94846
120633,64.94846
120667,64.94846
120700,64.94846
120733,64.94846
120767,62.42775
120800,62.42775
120833,62.42775
120867,62.42775
120900,62.42775
120933,62.42775
120967,62.42775
121000,62.42775
121033,62.42775
121067,62.42775
121100,62.42775
121133,62.42775
121167,62.42775
121200,62.42775
121233,62.42775
121267,62.42775
121300,62.42775
121333,62.42775
121367,62.37624
121400,62.06896999999999
121433,62.06896999999999
121467,62.06896999999999
121500,62.06896999999999
121533,62.06896999999999
121567,62.06896999999999
121600,62.42775
121633,62.42775
121667,62.42775
121700,62.42775
121733,62.42775
121767,62.42775
121800,62.42775
121833,62.42775
121867,62.42775
121900,62.42775
121933,62.42775
121967,62.42775
122000,62.42775
122033,62.42775
122067,62.42775
122100,62.42775
122133,62.42775
122167,62.42775
122200,62.42775
122233,62.42775
122267,62.42775
122300,62.42775
122333,62.42775
122367,63.31658
122400,63.31658
122433,62.7907
122467,62.7907
122500,62.7907
122533,62.7907
122567,62.7907
122600,62.7907
122633,62.7907
122667,62.7907
122700,62.7907
122733,62.7907
122767,62.7907
122800,62.7907
122833,62.7907
122867,62.7907
122900,62.7907
122933,62.7907
122967,62.7907
123000,62.7907
123033,62.7907
123067,62.7907
123100,62.7907
123133,62.7907
123167,62.7907
123200,62.68657
123233,62.68657
123267,62.68657
123300,62.68657
123333,61.71429000000001
123367,61.71429000000001
123400,61.71429000000001
123433,61.71429000000001
123467,61.71429000000001
123500,61.71429000000001
123533,61.71429000000001
123567,61.71429000000001
123600,61.71429000000001
123633,61.71429000000001
123667,61.71429000000001
123700,61.71429000000001
123733,61.71429000000001
123767,61.71429000000001
123800,61.71429000000001
123833,61.71429000000001
123867,61.71429000000001
123900,61.71429000000001
123933,61.71429000000001
123967,61.71429000000001
124000,61.71429000000001
124033,61.71429000000001
124067,62.68657
124100,62.68657
124133,62.68657
124167,62.68657
124200,64.67066
124233,64.67066
124267,64.67066
124300,64.67066
124333,64.67066
124367,64.67066
124400,64.67066
124433,64.67066
124467,64.67066
124500,64.67066
124533,64.67066
124567,64.67066
124600,64.67066
124633,64.67066
124667,64.67066
124700,64.67066
124733,64.67066
124767,64.67066
124800,64.67066
124833,64.67066
124867,64.67066
124900,64.67066
124933,64.67066
124967,64.67066
125000,64.67066
125033,64.28571
125067,64.28571
125100,64.28571
125133,64.28571
125167,64.28571
125200,64.28571
125233,64.28571
125267,64.28571
125300,64.28571
125333,64.28571
125367,64.28571
125400,64.28571
125433,64.28571
125467,64.28571
125500,64.28571
125533,64.28571
125567,64.28571
125600,64.28571
125633,64.28571
125667,64.28571
125700,64.28571
125733,64.28571
125767,64.28571
125800,64.28571
125833,64.28571
125867,64.28571
125900,64.28571
125933,64.28571
125967,64.28571
126000,63.95939
126033,63.95939
126067,63.95939
126100,63.95939
126133,63.95939
126167,63.95939
126200,63.95939
126233,63.95939
126267,64.28571
126300,64.28571
126333,64.28571
126367,64.28571
126400,64.28571
126433,64.28571
126467,64.28571
126500,64.28571
126533,64.28571
126567,64.28571
126600,64.28571
126633,64.28571
126667,64.28571
126700,64.28571
126733,64.28571
126767,64.28571
126800,64.28571
126833,64.28571
126867,64.28571
126900,64.28571
126933,64.28571
126967,63.95939
127000,64.28571
127033,63.31658
127067,63.31658
127100,63.31658
127133,63.31658
127167,63.31658
127200,63.31658
127233,63.52941
127267,63.52941
127300,63.52941
127333,63.52941
127367,63.52941
127400,63.52941
127433,63.52941
127467,63.52941
127500,63.52941
127533,63.52941
127567,63.52941
127600,63.52941
127633,63.52941
127667,63.52941
127700,63.52941
127733,63.52941
127767,63.52941
127800,63.52941
127833,63.52941
127867,63.52941
127900,63.52941
127933,63.52941
127967,63.52941
128000,63.31658
128033,63.31658
128067,63.31658
128100,63.31658
128133,63.31658
128167,63.31658
128200,62.42775
128233,62.42775
128267,62.42775
128300,62.42775
128333,62.42775
128367,62.42775
128400,62.42775
128433,62.42775
128467,62.42775
128500,62.42775
128533,62.42775
128567,62.42775
128600,62.42775
128633,62.42775
128667,62.42775
128700,62.42775
128733,62.42775
128767,62.42775
128800,62.42775
128833,62.42775
128867,62.42775
128900,62.42775
128933,62.42775
128967,62.37624
129000,62.37624
129033,62.37624
129067,62.42775
129100,62.42775
129133,62.42775
129167,62.42775
129200,62.42775
129233,62.42775
129267,62.42775
129300,62.42775
129333,62.42775
129367,62.42775
129400,62.42775
129433,62.42775
129467,62.42775
129500,62.42775
129533,62.42775
129567,62.42775
129600,62.42775
129633,62.42775
129667,62.42775
129700,62.42775
129733,62.42775
129767,62.42775
129800,62.42775
129833,62.42775
129867,62.42775
129900,62.42775
129933,62.42775
129967,62.42775
130000,61.76471
130033,60.67416
130067,60.67416
130100,60.67416
130133,60.67416
130167,60.67416
130200,60.67416
130233,60.67416
130267,60.67416
130300,60.67416
130333,60.67416
130367,60.67416
130400,60.67416
130433,60.67416
130467,60.67416
130500,60.67416
130533,60.67416
130567,60.67416
130600,60.67416
130633,60.67416
130667,60.67416
130700,60.67416
130733,60.67416
130767,60.67416
130800,60.67416
130833,60.67416
130867,60.67416
130900,60.40268
130933,61.01695
130967,61.01695
131000,61.01695
131033,61.01695
131067,61.01695
131100,61.01695
131133,61.01695
131167,61.01695
131200,61.01695
131233,61.01695
131267,61.01695
131300,61.01695
131333,61.01695
131367,61.01695
131400,61.01695
131433,61.01695
131467,61.01695
131500,61.01695
131533,61.01695
131567,61.01695
131600,61.01695
131633,61.01695
131667,61.01695
131700,61.01695
131733,61.01695
131767,61.01695
131800,61.01695
131833,61.01695
131867,60.81081
131900,61.01695
131933,61.01695
131967,61.01695
132000,61.01695
132033,61.01695
132067,61.01695
132100,61.01695
132133,61.01695
132167,61.01695
132200,61.01695
132233,61.01695
132267,61.01695
132300,61.01695
132333,61.01695
132367,61.01695
132400,61.01695
132433,61.01695
132467,61.01695
132500,61.01695
132533,61.01695
132567,61.01695
132600,61.01695
132633,61.01695
132667,61.01695
132700,61.01695
132733,61.01695
132767,61.01695
132800,61.01695
132833,60.81081
132867,60.81081
132900,60.81081
132933,60.33519
132967,60.33519
133000,60.33519
133033,60.33519
133067,60.33519
133100,60.33519
133133,60.33519
133167,60.33519
133200,60.33519
133233,60.33519
133267,60.33519
133300,60.33519
133333,60.33519
133367,60.33519
133400,60.33519
133433,60.33519
133467,60.33519
133500,60.33519
133533,60.33519
133567,60.33519
133600,60.33519
133633,60.33519
133667,60.33519
133700,60.33519
133733,60.33519
133767,60.33519
133800,60.81081
133833,60.81081
133867,60.81081
133900,60.81081
133933,60.81081
133967,60.33519
134000,60.33519
134033,60.33519
134067,60.33519
134100,60.33519
134133,60.33519
134167,60.33519
134200,60.33519
134233,60.33519
134267,60.33519
134300,60.33519
134333,60.33519
134367,60.33519
134400,60.67416
134433,60.67416
134467,60.67416
134500,60.67416
134533,60.67416
134567,60.67416
134600,60.67416
134633,60.67416
134667,60.67416
134700,60.67416
134733,60.67416
134767,60.67416
134800,60.67416
134833,60.81081
134867,61.36364
134900,61.36364
134933,61.36364
134967,61.36364
135000,61.36364
135033,61.36364
135067,61.36364
135100,61.36364
135133,61.36364
135167,61.36364
135200,61.36364
135233,61.36364
135267,61.36364
135300,61.36364
135333,61.36364
135367,61.36364
135400,61.36364
135433,61.36364
135467,61.36364
135500,61.36364
135533,61.36364
135567,61.36364
135600,61.36364
135633,61.36364
135667,61.36364
135700,61.36364
135733,61.36364
135767,61.36364
135800,61.36364
135833,61.64384
135867,61.64384
135900,61.64384
135933,61.64384
135967,60.33519
136000,60.33519
136033,60.33519
136067,60.33519
136100,60.33519
136133,60.33519
136167,60.33519
136200,60.33519
136233,60.33519
136267,60.33519
136300,60.33519
136333,60.33519
136367,60.33519
136400,60.33519
136433,60.33519
136467,60.33519
136500,60.33519
136533,60.33519
136567,60.33519
136600,60.33519
136633,60.33519
136667,60.33519
136700,60.33519
136733,60.33519
136767,60.33519
136800,60.33519
136833,59.60265
136867,59.60265
136900,59.60265
136933,60.0
136967,60.0
137000,60.0
137033,60.0
137067,60.0
137100,60.0
137133,60.0
137167,60.0
137200,60.0
137233,60.0
137267,60.0
137300,60.0
137333,60.0
137367,60.0
137400,60.0
137433,60.0
137467,60.0
137500,60.0
137533,60.0
137567,60.0
137600,60.0
137633,60.0
137667,60.0
137700,60.0
137733,60.0
137767,59.60265
137800,59.60265
137833,59.60265
137867,59.60265
137900,59.60265
137933,59.60265
137967,59.60265
138000,59.34066
138033,59.34066
138067,59.34066
138100,59.34066
138133,59.34066
138167,59.01639
138200,59.01639
138233,59.01639
138267,59.01639
138300,59.01639
138333,59.01639
138367,59.01639
138400,59.01639
138433,59.01639
138467,59.01639
138500,59.01639
138533,59.01639
138567,59.01639
138600,59.01639
138633,59.01639
138667,59.01639
138700,59.01639
138733,59.21053000000001
138767,59.21053000000001
138800,59.21053000000001
138833,59.21053000000001
138867,59.21053000000001
138900,59.21053000000001
138933,59.21053000000001
138967,59.21053000000001
139000,59.21053000000001
139033,59.21053000000001
139067,59.21053000000001
139100,58.37838000000001
139133,58.37838000000001
139167,58.37838000000001
139200,58.37838000000001
139233,58.37838000000001
139267,58.37838000000001
139300,58.37838000000001
139333,58.37838000000001
139367,58.37838000000001
139400,58.37838000000001
139433,58.37838000000001
139467,58.37838000000001
139500,58.37838000000001
139533,58.37838000000001
139567,58.37838000000001
139600,58.37838000000001
139633,58.37838000000001
139667,58.37838000000001
139700,58.37838000000001
139733,58.37838000000001
139767,58.06452
139800,58.06452
139833,58.06452
139867,58.06452
139900,58.06452
139933,58.06452
139967,58.06452
140000,59.34066
140033,58.06452
140067,58.69565
140100,58.69565
140133,58.69565
140167,59.01639
140200,59.01639
140233,59.34066
140267,59.34066
140300,59.34066
140333,59.34066
140367,59.34066
140400,59.34066
140433,59.34066
140467,59.34066
140500,59.34066
140533,59.34066
140567,59.34066
140600,59.34066
140633,59.34066
140667,59.34066
140700,59.34066
140733,59.34066
140767,58.06452
140800,58.06452
140833,58.06452
140867,58.06452
140900,58.06452
140933,60.33519
140967,60.33519
141000,60.33519
141033,60.33519
141067,60.33519
141100,60.33519
141133,60.33519
141167,60.33519
141200,60.33519
141233,60.33519
141267,60.33519
141300,60.33519
141333,60.33519
141367,60.33519
141400,60.33519
141433,60.33519
141467,60.33519
141500,60.33519
141533,60.33519
141567,60.33519
141600,60.33519
141633,60.33519
141667,62.42775
141700,62.42775
141733,62.42775
141767,62.42775
141800,62.42775
141833,62.42775
141867,62.42775
141900,62.42775
141933,62.42775
141967,62.42775
142000,62.42775
142033,62.42775
142067,62.42775
142100,62.42775
142133,62.42775
142167,62.42775
142200,62.42775
142233,62.42775
142267,62.42775
142300,62.42775
142333,62.42775
142367,62.42775
142400,62.42775
142433,62.42775
142467,62.42775
142500,62.42775
142533,62.42775
142567,62.42775
142600,62.42775
142633,62.42775
142667,62.42775
142700,62.42775
142733,63.380280000000006
142767,63.380280000000006
142800,63.380280000000006
142833,63.380280000000006
142867,62.93706
142900,62.93706
142933,62.93706
142967,62.93706
143000,62.93706
143033,62.93706
143067,62.93706
143100,62.93706
143133,62.93706
143167,62.93706
143200,57.44681
143233,62.93706
143267,56.84211
143300,56.84211
143333,56.84211
143367,56.84211
143400,56.84211
143433,56.84211
143467,56.84211
143500,56.84211
143533,56.84211
143567,56.84211
143600,56.84211
143633,56.84211
143667,56.84211
143700,56.84211
143733,56.84211
143767,56.96202
143800,56.96202
143833,56.96202
143867,56.96202
143900,56.96202
143933,56.96202
143967,56.96202
144000,56.96202
144033,56.96202
144067,56.96202
144100,56.96202
144133,56.96202
144167,56.96202
144200,56.96202
144233,56.96202
144267,56.96202
144300,57.14286
144333,57.14286
144367,57.14286
144400,57.14286
144433,57.14286
144467,57.14286
144500,57.14286
144533,57.44681
144567,57.44681
144600,57.44681
144633,57.44681
144667,57.44681
144700,57.44681
144733,57.44681
144767,57.44681
144800,57.44681
144833,57.69231
144867,57.69231
144900,57.69231
144933,57.69231
144967,57.69231
145000,57.69231
145033,57.69231
145067,57.69231
145100,57.69231
145133,57.69231
145167,59.01639
145200,59.01639
145233,59.01639
145267,59.01639
145300,59.01639
145333,59.01639
145367,59.01639
145400,59.01639
145433,59.01639
145467,59.01639
145500,59.01639
145533,59.01639
145567,59.01639
145600,59.01639
145633,59.01639
145667,59.01639
145700,59.01639
145733,59.01639
145767,59.01639
145800,59.01639
145833,59.01639
145867,59.01639
145900,58.44156
145933,58.44156
145967,58.44156
146000,58.44156
146033,58.44156
146067,70.12987
146100,70.12987
146133,68.85246
146167,68.85246
146200,68.85246
146233,68.85246
146267,68.85246
146300,68.85246
146333,68.85246
146367,68.85246
146400,68.85246
146433,68.85246
146467,68.85246
146500,68.85246
146533,68.85246
146567,68.85246
146600,68.85246
146633,68.85246
146667,68.85246
146700,68.85246
146733,68.85246
146767,68.85246
146800,68.85246
146833,68.85246
146867,67.5
146900,67.5
146933,67.5
146967,67.5
147000,67.5
147033,67.5
147067,67.5
147100,66.66666
147133,66.66666
147167,66.66666
147200,66.66666
147233,66.66666
147267,66.66666
147300,66.66666
147333,66.66666
147367,66.66666
147400,66.66666
147433,66.66666
147467,66.66666
147500,66.66666
147533,66.66666
147567,66.66666
147600,66.66666
147633,66.25766999999999
147667,66.25766999999999
147700,66.25766999999999
147733,66.25766999999999
147767,66.25766999999999
147800,66.25766999999999
147833,66.25766999999999
147867,66.25766999999999
147900,66.25766999999999
147933,66.25766999999999
147967,66.25766999999999
148000,66.25766999999999
148033,66.25766999999999
148067,65.625
148100,65.625
148133,65.625
148167,65.625
148200,65.625
148233,65.625
148267,65.625
148300,65.625
148333,65.625
148367,65.625
148400,65.625
148433,65.625
148467,65.625
148500,63.52941
148533,63.52941
148567,63.52941
148600,63.52941
148633,63.52941
148667,63.52941
148700,63.52941
148733,63.52941
148767,63.52941
148800,63.52941
148833,63.52941
148867,63.52941
148900,63.52941
148933,63.52941
148967,63.52941
149000,63.905330000000006
149033,63.31658
149067,63.31658
149100,63.31658
149133,63.31658
149167,63.31658
149200,63.31658
149233,62.42775
149267,62.42775
149300,62.42775
149333,62.42775
149367,62.42775
149400,62.42775
149433,62.42775
149467,62.42775
149500,62.42775
149533,62.42775
149567,62.42775
149600,62.42775
149633,62.42775
149667,62.42775
149700,62.42775
149733,62.42775
149767,62.42775
149800,62.42775
149833,62.42775
149867,62.42775
149900,62.42775
149933,62.42775
149967,62.42775
150000,62.37624
150033,62.37624
150067,62.37624
150100,62.42775
150133,62.42775
150167,62.42775
150200,62.42775
150233,62.42775
150267,62.42775
150300,62.42775
150333,62.42775
150367,62.42775
150400,62.42775
150433,62.42775
150467,62.42775
150500,62.42775
150533,62.42775
150567,62.42775
150600,62.42775
150633,62.42775
150667,62.42775
150700,62.42775
150733,62.42775
150767,62.42775
150800,62.42775
150833,62.42775
150867,63.31658
150900,63.31658
150933,63.31658
150967,63.31658
151000,63.31658
151033,63.31658
151067,63.15789
151100,63.15789
151133,63.15789
151167,63.15789
151200,63.15789
151233,63.15789
151267,63.15789
151300,63.15789
151333,63.15789
151367,63.15789
151400,63.15789
151433,63.15789
151467,63.15789
151500,63.15789
151533,63.15789
151567,63.15789
151600,63.15789
151633,63.15789
151667,63.15789
151700,63.15789
151733,63.95939
151767,63.95939
151800,63.95939
151833,63.63636
151867,63.63636
151900,63.63636
151933,63.63636
151967,63.52941
152000,63.52941
152033,63.52941
152067,63.52941
152100,63.52941
152133,63.52941
152167,63.52941
152200,63.52941
152233,63.52941
152267,63.52941
152300,63.52941
152333,63.52941
152367,63.52941
152400,63.52941
152433,63.52941
152467,63.52941
152500,63.52941
152533,63.52941
152567,63.52941
152600,63.52941
152633,63.52941
152667,63.52941
152700,63.52941
152733,63.52941
152767,63.52941
152800,62.68657
152833,62.68657
152867,62.68657
152900,62.68657
152933,63.15789
152967,63.15789
153000,63.15789
153033,63.15789
153067,63.15789
153100,63.15789
153133,63.15789
153167,63.15789
153200,63.15789
153233,63.15789
153267,63.15789
153300,63.15789
153333,63.15789
153367,63.15789
153400,63.15789
153433,63.15789
153467,63.15789
153500,63.15789
153533,63.15789
153567,63.15789
153600,63.15789
153633,63.15789
153667,63.15789
153700,63.15789
153733,63.15789
153767,63.15789
153800,63.15789
153833,62.37624
153867,62.37624
153900,62.37624
153933,62.42775
153967,62.42775
154000,62.42775
154033,62.42775
154067,62.42775
154100,62.42775
154133,62.42775
154167,62.42775
154200,62.42775
154233,62.42775
154267,62.42775
154300,62.42775
154333,62.42775
154367,62.42775
154400,62.42775
154433,62.42775
154467,62.42775
154500,62.42775
154533,62.42775
154567,62.42775
154600,62.42775
154633,62.42775
154667,62.42775
154700,62.42775
154733,62.42775
154767,62.68657
154800,62.68657
154833,62.68657
154867,62.68657
154900,62.7907
154933,62.7907
154967,63.15789
155000,63.15789
155033,63.15789
155067,63.15789
155100,63.15789
155133,63.15789
155167,63.15789
155200,63.15789
155233,63.15789
155267,63.15789
155300,63.15789
155333,63.15789
155367,63.15789
155400,63.15789
155433,63.15789
155467,63.15789
155500,63.15789
155533,63.15789
155567,63.15789
155600,63.95939
155633,63.95939
155667,63.95939
155700,63.95939
155733,63.95939
155767,63.95939
155800,63.95939
155833,63.95939
155867,64.28571
155900,64.28571
155933,64.28571
155967,64.28571
156000,64.28571
156033,64.28571
156067,64.28571
156100,64.28571
156133,64.28571
156167,64.28571
156200,64.28571
156233,64.28571
156267,64.28571
156300,64.28571
156333,64.28571
156367,64.28571
156400,64.28571
156433,64.28571
156467,64.28571
156500,64.28571
156533,64.28571
156567,64.28571
156600,64.28571
156633,64.28571
156667,64.28571
156700,64.28571
156733,64.28571
156767,64.28571
156800,64.28571
156833,63.52941
156867,63.52941
156900,63.52941
156933,63.52941
156967,63.52941
157000,63.52941
157033,63.52941
157067,63.52941
157100,63.52941
157133,63.52941
157167,63.52941
157200,63.52941
157233,63.52941
157267,63.52941
157300,63.52941
157333,63.52941
157367,63.52941
157400,63.52941
157433,63.52941
157467,63.52941
157500,63.52941
157533,63.52941
157567,62.68657
157600,62.68657
157633,62.68657
157667,62.68657
157700,62.06896999999999
157733,62.06896999999999
157767,62.06896999999999
157800,62.06896999999999
157833,62.06896999999999
157867,62.06896999999999
157900,62.06896999999999
157933,62.06896999999999
157967,62.06896999999999
158000,62.06896999999999
158033,62.06896999999999
158067,62.06896999999999
158100,62.06896999999999
158133,62.06896999999999
158167,62.06896999999999
158200,62.06896999999999
158233,62.06896999999999
158267,62.06896999999999
158300,62.06896999999999
158333,62.06896999999999
158367,62.06896999999999
158400,62.06896999999999
158433,62.06896999999999
158467,62.06896999999999
158500,62.06896999999999
158533,62.06896999999999
158567,61.76471
158600,62.42775
158633,62.42775
158667,62.42775
158700,62.42775
158733,62.42775
158767,62.42775
158800,62.42775
158833,62.42775
158867,62.42775
158900,62.42775
158933,62.42775
158967,62.42775
159000,62.42775
159033,62.42775
159067,62.42775
159100,62.42775
159133,62.42775
159167,62.42775
159200,62.42775
159233,62.42775
159267,62.42775
159300,62.42775
159333,62.42775
159367,62.42775
159400,62.42775
159433,62.42775
159467,62.42775
159500,62.42775
159533,62.42775
159567,62.06896999999999
159600,62.06896999999999
159633,62.7907
159667,62.7907
159700,62.7907
159733,62.7907
159767,62.7907
159800,62.7907
159833,62.7907
159867,62.7907
159900,62.7907
159933,62.7907
159967,62.7907
160000,62.7907
160033,62.7907
160067,62.7907
160100,62.7907
160133,62.7907
160167,62.7907
160200,62.7907
160233,62.7907
160267,62.7907
160300,62.7907
160333,62.7907
160367,62.7907
160400,62.7907
160433,62.7907
160467,62.7907
160500,62.7907
160533,62.7907
160567,62.37624
160600,62.37624
160633,62.37624
160667,61.71429000000001
160700,61.71429000000001
160733,61.71429000000001
160767,61.71429000000001
160800,61.71429000000001
160833,61.71429000000001
160867,61.71429000000001
160900,61.71429000000001
160933,61.71429000000001
160967,61.71429000000001
161000,61.71429000000001
161033,61.71429000000001
161067,61.71429000000001
161100,61.71429000000001
161133,61.71429000000001
161167,61.71429000000001
161200,61.71429000000001
161233,61.71429000000001
161267,61.71429000000001
161300,61.71429000000001
161333,61.71429000000001
161367,61.71429000000001
161400,61.71429000000001
161433,61.71429000000001
161467,61.71429000000001
161500,61.71429000000001
161533,61.71429000000001
161567,60.40268
161600,60.0
161633,60.0
161667,60.0
161700,60.0
161733,60.0
161767,60.0
161800,60.0
161833,60.0
161867,60.0
161900,60.0
161933,60.0
161967,60.0
162000,60.0
162033,60.0
162067,60.0
162100,60.0
162133,60.0
162167,60.0
162200,60.0
162233,60.0
162267,60.0
162300,60.0
162333,60.0
162367,60.0
162400,59.21053000000001
162433,59.21053000000001
162467,59.21053000000001
162500,59.21053000000001
162533,59.21053000000001
162567,59.21053000000001
162600,59.21053000000001
162633,59.21053000000001
162667,59.21053000000001
162700,58.37838000000001
162733,58.37838000000001
162767,58.37838000000001
162800,58.37838000000001
162833,58.37838000000001
162867,58.37838000000001
162900,58.37838000000001
162933,58.37838000000001
162967,58.37838000000001
163000,58.37838000000001
163033,58.37838000000001
163067,58.37838000000001
163100,58.37838000000001
163133,58.37838000000001
163167,58.37838000000001
163200,58.37838000000001
163233,58.37838000000001
163267,58.37838000000001
163300,58.37838000000001
163333,58.37838000000001
163367,58.44156
163400,58.44156
163433,58.44156
163467,58.44156
163500,58.44156
163533,58.44156
163567,58.44156
163600,58.44156
163633,58.44156
163667,58.44156
163700,60.0
163733,60.0
163767,60.0
163800,60.0
163833,60.0
163867,60.0
163900,60.33519
163933,60.67416
163967,60.67416
164000,60.67416
164033,60.67416
164067,60.67416
164100,60.67416
164133,60.67416
164167,60.67416
164200,60.67416
164233,60.67416
164267,60.67416
164300,62.37624
164333,62.37624
164367,62.06896999999999
164400,62.42775
164433,62.42775
164467,62.42775
164500,62.42775
164533,62.42775
164567,62.42775
164600,62.42775
164633,62.42775
164667,62.42775
164700,62.42775
164733,62.42775
164767,62.42775
164800,62.42775
164833,62.42775
164867,62.42775
164900,62.42775
164933,62.42775
164967,62.42775
165000,62.42775
165033,62.42775
165067,62.42775
165100,62.42775
165133,62.42775
165167,62.42775
165200,62.42775
165233,62.42775
165267,62.42775
165300,62.42775
165333,63.31658
165367,63.31658
165400,63.905330000000006
165433,63.905330000000006
165467,63.905330000000006
165500,63.905330000000006
165533,63.905330000000006
165567,63.905330000000006
165600,63.905330000000006
165633,63.905330000000006
165667,63.905330000000006
165700,63.905330000000006
165733,63.905330000000006
165767,63.905330000000006
165800,63.905330000000006
165833,63.905330000000006
165867,63.905330000000006
165900,63.905330000000006
165933,63.905330000000006
165967,63.905330000000006
166000,63.905330000000006
166033,63.905330000000006
166067,64.61539
166100,64.28571
166133,64.28571
166167,64.28571
166200,64.28571
166233,64.28571
166267,64.28571
166300,64.28571
166333,64.28571
166367,64.28571
166400,65.06024000000001
166433,65.06024000000001
166467,65.06024000000001
166500,65.06024000000001
166533,65.06024000000001
166567,65.06024000000001
166600,65.06024000000001
166633,65.45454000000001
166667,65.45454000000001
166700,65.45454000000001
166733,65.45454000000001
166767,65.45454000000001
166800,65.45454000000001
166833,65.45454000000001
166867,65.45454000000001
166900,65.45454000000001
166933,65.45454000000001
166967,65.45454000000001
167000,65.45454000000001
167033,64.94846
167067,64.61539
167100,64.61539
167133,64.61539
167167,64.61539
167200,64.61539
167233,64.61539
167267,64.61539
167300,64.61539
167333,64.61539
167367,64.61539
167400,65.85365999999999
167433,65.85365999999999
167467,65.85365999999999
167500,65.85365999999999
167533,65.85365999999999
167567,65.85365999999999
167600,65.85365999999999
167633,65.85365999999999
167667,65.85365999999999
167700,65.85365999999999
167733,65.85365999999999
167767,65.85365999999999
167800,65.85365999999999
167833,65.85365999999999
167867,65.85365999999999
167900,66.66666
167933,66.66666
167967,66.66666
168000,66.66666
168033,66.66666
168067,66.66666
168100,66.66666
168133,66.66666
168167,66.66666
168200,66.66666
168233,66.66666
168267,66.66666
168300,66.66666
168333,66.66666
168367,66.66666
168400,66.66666
168433,69.23076999999999
168467,69.23076999999999
168500,69.23076999999999
168533,69.23076999999999
168567,69.23076999999999
168600,69.23076999999999
168633,69.23076999999999
168667,69.23076999999999
168700,69.23076999999999
168733,69.23076999999999
168767,69.23076999999999
168800,69.23076999999999
168833,69.23076999999999
168867,69.23076999999999
168900,69.23076999999999
168933,69.23076999999999
168967,69.23076999999999
169000,69.23076999999999
169033,69.23076999999999
169067,69.23076999999999
169100,69.23076999999999
169133,69.23076999999999
169167,69.23076999999999
169200,69.23076999999999
169233,69.23076999999999
169267,69.23076999999999
169300,69.23076999999999
169333,69.23076999999999
169367,69.23076999999999
169400,69.23076999999999
169433,69.23076999999999
169467,69.23076999999999
169500,69.23076999999999
169533,69.23076999999999
169567,69.23076999999999
169600,69.61326
169633,69.61326
169667,69.61326
169700,69.61326
169733,69.61326
169767,69.61326
169800,69.61326
169833,69.61326
169867,69.61326
169900,69.61326
169933,69.61326
169967,69.61326
170000,69.61326
170033,69.61326
170067,69.61326
170100,69.61326
170133,69.61326
170167,69.61326
170200,69.61326
170233,69.61326
170267,69.61326
170300,69.61326
170333,69.61326
170367,69.61326
170400,68.35443000000001
170433,68.35443000000001
170467,68.47825999999999
170500,68.47825999999999
170533,68.47825999999999
170567,68.47825999999999
170600,68.47825999999999
170633,68.47825999999999
170667,68.47825999999999
170700,68.47825999999999
170733,68.47825999999999
170767,68.47825999999999
170800,68.47825999999999
170833,68.85246
170867,68.85246
170900,68.85246
170933,68.85246
170967,68.85246
171000,68.85246
171033,68.85246
171067,68.85246
171100,68.85246
171133,68.85246
171167,68.78981
171200,68.78981
171233,68.78981
171267,68.78981
171300,68.78981
171333,68.78981
171367,68.10811
171400,68.10811
171433,68.10811
171467,68.10811
171500,68.10811
171533,68.10811
171567,68.10811
171600,68.10811
171633,68.10811
171667,68.10811
171700,68.10811
171733,68.10811
171767,68.10811
171800,68.10811
171833,68.10811
171867,68.10811
171900,68.10811
171933,68.10811
171967,68.10811
172000,68.10811
172033,67.92453
172067,67.92453
172100,67.92453
172133,67.92453
172167,67.92453
172200,67.92453
172233,67.92453
172267,67.92453
172300,67.92453
172333,67.92453
172367,67.92453
172400,66.31579
172433,66.31579
172467,66.31579
172500,66.66666
172533,66.66666
172567,66.66666
172600,66.66666
172633,66.66666
172667,66.66666
172700,66.66666
172733,66.66666
172767,66.66666
172800,66.66666
172833,66.66666
172867,66.66666
172900,67.92453
172933,67.92453
172967,67.92453
173000,67.92453
173033,67.92453
173067,67.92453
173100,67.92453
173133,67.92453
173167,67.92453
173200,68.47825999999999
173233,68.47825999999999
173267,68.47825999999999
173300,68.47825999999999
173333,68.47825999999999
173367,68.47825999999999
173400,68.47825999999999
173433,68.47825999999999
173467,68.47825999999999
173500,68.47825999999999
173533,68.47825999999999
173567,68.47825999999999
173600,68.47825999999999
173633,68.47825999999999
173667,68.47825999999999
173700,68.47825999999999
173733,68.47825999999999
173767,68.47825999999999
173800,68.47825999999999
173833,68.47825999999999
173867,68.47825999999999
173900,67.92453
173933,67.92453
173967,67.92453
174000,67.92453
174033,67.92453
174067,67.92453
174100,67.92453
174133,67.92453
174167,67.02128
174200,67.92453
174233,66.31579
174267,66.31579
174300,66.31579
174333,66.31579
174367,66.31579
174400,66.31579
174433,66.31579
174467,66.31579
174500,66.31579
174533,66.31579
174567,66.31579
174600,66.31579
174633,66.31579
174667,66.31579
174700,66.31579
174733,65.85365999999999
174767,65.85365999999999
174800,65.85365999999999
174833,65.85365999999999
174867,65.85365999999999
174900,65.85365999999999
174933,68.10811
174967,68.10811
175000,68.10811
175033,68.10811
175067,68.10811
175100,68.10811
175133,68.10811
175167,68.10811
175200,68.10811
175233,68.10811
175267,68.10811
175300,68.10811
175333,68.10811
175367,68.10811
175400,68.10811
175433,68.10811
175467,68.10811
175500,68.10811
175533,68.10811
175567,68.10811
175600,67.5
175633,67.5
175667,67.5
175700,67.5
175733,68.47825999999999
175767,68.47825999999999
175800,68.47825999999999
175833,68.47825999999999
175867,68.47825999999999
175900,68.47825999999999
175933,68.47825999999999
175967,68.47825999999999
176000,68.47825999999999
176033,68.47825999999999
176067,68.47825999999999
176100,68.47825999999999
176133,68.47825999999999
176167,68.47825999999999
176200,68.47825999999999
176233,68.47825999999999
176267,68.47825999999999
176300,68.47825999999999
176333,68.47825999999999
176367,68.47825999999999
176400,68.47825999999999
176433,67.5
176467,67.5
176500,67.5
176533,67.5
176567,68.10811
176600,67.5
176633,67.37968000000001
176667,67.37968000000001
176700,67.37968000000001
176733,67.37968000000001
176767,67.37968000000001
176800,67.37968000000001
176833,67.37968000000001
176867,67.37968000000001
176900,67.37968000000001
176933,67.37968000000001
176967,67.37968000000001
177000,67.37968000000001
177033,67.37968000000001
177067,67.37968000000001
177100,67.37968000000001
177133,67.37968000000001
177167,67.37968000000001
177200,67.37968000000001
177233,67.92453
177267,67.92453
177300,67.92453
177333,67.92453
177367,69.61326
177400,69.61326
177433,69.61326
177467,69.61326
177500,69.61326
177533,69.61326
177567,69.61326
177600,69.61326
177633,69.61326
177667,69.61326
177700,69.61326
177734,69.61326
177767,69.61326
177800,69.61326
177834,69.61326
177867,69.61326
177900,69.61326
177934,69.61326
177967,69.61326
178000,69.61326
178034,69.61326
178067,69.61326
178100,69.61326
178134,69.61326
178167,69.61326
178200,69.61326
178234,69.61326
178267,69.61326
178300,69.61326
178334,69.61326
178367,69.61326
178400,69.61326
178434,69.61326
178467,69.61326
178500,69.61326
178534,69.61326
178567,69.61326
178600,69.61326
178634,69.61326
178667,69.61326
178700,69.61326
178734,69.61326
178767,69.61326
178800,69.61326
178834,69.61326
178867,69.61326
178900,69.61326
178934,69.61326
178967,69.61326
179000,69.61326
179034,69.61326
179067,69.61326
179100,69.61326
179134,69.61326
179167,69.61326
179200,69.61326
179234,69.61326
179267,69.61326
179300,69.61326
179334,69.61326
179367,69.61326
179400,69.61326
179434,69.61326
179467,69.61326
179500,69.61326
179534,69.61326
179567,69.61326
179600,69.61326
179634,69.61326
179667,69.61326
179700,69.61326
179734,69.61326
179767,69.61326
179800,69.61326
179834,69.61326
179867,69.61326
179900,69.61326
179934,69.61326
179967,69.61326
180000,69.61326
180034,69.61326
180067,69.61326
180100,69.61326
180134,69.61326
180167,69.61326
180200,69.61326
180234,69.61326
180267,69.61326
180300,69.61326
180334,69.61326
180367,69.61326
180400,69.61326
180434,69.61326
180467,69.61326
180500,69.61326
180534,69.61326
180567,69.61326
180600,69.61326
180634,69.61326
180667,69.61326
180700,69.61326
180734,69.61326
180767,69.61326
180800,69.61326
180834,69.61326
180867,69.61326
180900,69.61326
180934,69.61326
180967,69.61326
181000,69.61326
181034,69.61326
181067,69.61326
181100,69.61326
181134,69.61326
181167,69.61326
181200,69.61326
181234,69.61326
181267,69.61326
181300,69.61326
181334,69.61326
181367,69.61326
181400,69.61326
181434,69.61326
181467,69.61326
181500,69.61326
181534,69.61326
181567,69.61326
181600,69.61326
181634,69.61326
181667,69.61326
181700,69.61326
181734,69.61326
181767,69.61326
181800,69.61326
181834,69.61326
181867,69.61326
181900,69.61326
181934,69.61326
181967,69.61326
182000,69.61326
182034,69.61326
182067,69.61326
182100,69.61326
182134,69.61326
182167,69.61326
182200,69.61326
182234,69.61326
182267,69.61326
182300,69.61326
182334,69.61326
182367,69.61326
182400,69.61326
182434,69.61326
182467,69.61326
182500,69.61326
182534,69.61326
182567,69.61326
182600,69.61326
182634,69.61326
182667,69.61326
182700,69.61326
182734,69.61326
182767,69.61326
182800,69.61326
182834,69.61326
182867,69.61326
182900,69.61326
182934,69.61326
182967,69.61326
183000,69.61326
183034,69.61326
183067,69.61326
183100,69.61326
183134,69.61326
183167,69.61326
183200,69.61326
183234,69.61326
183267,69.61326
183300,69.61326
183334,69.61326
183367,69.61326
183400,69.61326
183434,69.61326
183467,69.61326
183500,69.61326
183534,69.61326
183567,69.61326
183600,69.61326
183634,69.61326
183667,69.61326
183700,69.61326
183734,69.61326
183767,69.61326
183800,69.61326
183834,69.61326
183867,69.61326
183900,69.61326
183934,69.61326
183967,69.61326
184000,69.61326
184034,69.61326
184067,69.61326
184100,69.61326
184134,69.61326
184167,69.61326
184200,69.61326
184234,69.61326
184267,69.61326
184300,69.61326
184334,69.61326
184367,69.61326
184400,69.61326
184434,69.61326
184467,69.61326
184500,69.61326
