B,G,R,Time[ms]
122.24170902553932,101.91237912224152,73.0985463674684,0.0
122.58952702702706,101.75533101909252,73.49765993057278,33.333333333333336
122.61669352839078,101.74679209025541,73.54859905777337,66.66666666666667
122.30013327547731,101.73493677163404,73.24728799900821,100.0
122.40382469625591,101.68213798661048,73.43263389536325,133.33333333333334
122.25905033473845,101.75388978427969,73.22594842548972,166.66666666666666
122.41357240267791,101.68054178031242,73.45198983387057,200.0
122.21803652968036,101.72591941256329,73.29478279649513,233.33333333333331
122.2041527829199,101.72391398247564,73.24618968283352,266.6666666666667
122.15744601983135,101.6931856794242,73.24239335248511,300.0
122.05170425718373,101.71089894377566,73.26344110818997,333.3333333333333
121.89151921903601,101.56296522269676,73.45039658328248,366.6666666666666
122.06478790953678,101.73068585397353,73.31144012422551,400.0
122.20188183201886,101.73519056624079,73.44685823224636,433.33333333333337
122.20584843872514,101.73626677736269,73.48475623818089,466.66666666666674
121.89157549569427,101.70419233244459,73.25253593208913,500.0
121.9908523083032,101.63116018387016,73.60243429391733,533.3333333333334
121.74598738565386,101.74664406469051,73.28031031902385,566.6666666666666
121.8341656358333,101.78147859684488,73.32143675264582,600.0
121.99040789433359,101.9421715546566,73.35837087432196,633.3333333333333
122.15518964377412,102.05725443168366,73.3337945666713,666.6666666666666
122.0243020440685,101.99457571021419,73.37708007722719,700.0
121.97059544604824,101.99295148784898,73.393153749502,733.3333333333333
122.25272603712973,101.94015074290304,73.47613752200908,766.6666666666667
121.90051196900512,101.8532201774211,73.25426256476484,800.0
121.83761511615393,101.59206986147629,73.30116999523392,833.3333333333335
121.83432498500991,101.56913119013576,73.3251695032517,866.6666666666667
121.42321718611136,101.45266770862064,73.00537832122828,900.0
121.43467867978303,101.30149244583372,73.11801660997213,933.3333333333336
121.22107992678465,101.25997559487492,72.9737187309335,966.6666666666664
121.55389047225029,101.18077901382121,73.22602739726027,1000.0
121.31459348472313,101.1586374919555,72.99008611443107,1033.3333333333335
121.32492108730965,101.1401274861328,72.96826637246791,1066.6666666666667
121.35593454077411,101.12894180380621,72.99878949465233,1100.0
121.32048519179851,101.18256265008313,72.89449541284405,1133.3333333333333
121.38655255218274,101.21234837756296,72.86580259836217,1166.6666666666667
121.38989286373993,101.21213287359151,72.84125053875992,1200.0
121.49221107074686,101.21113231943843,72.99741395234281,1233.3333333333335
121.51223754694908,101.197417030971,73.01965704082261,1266.6666666666665
121.37660858321532,101.27205837078995,72.89043162366848,1300.0
121.43701126777908,101.30684686903516,72.95426697863431,1333.3333333333333
121.39492642078687,101.33436980481495,72.90068345545224,1366.6666666666667
121.52065759497569,101.34362108244564,73.04867311126162,1400.0
121.44082876670154,101.41389077027277,72.94743242411181,1433.333333333333
121.27869657267344,101.30006750329844,72.8747660397042,1466.6666666666665
121.79639492642076,101.47115325410995,73.3676959546826,1500.0
121.55569238347393,101.54311618742688,73.10373437596206,1533.3333333333335
121.57727356689855,101.5558617080229,73.0850624961517,1566.666666666667
121.52144264515732,101.51390000615723,73.0210732097777,1600.0
121.36009174311928,101.24599388379204,73.16036697247706,1633.333333333333
121.37311926605507,101.24,73.17535168195721,1666.666666666667
120.70519574893268,101.00105973900142,72.72950918945105,1700.0
120.4678147089788,100.60703865242891,72.72711685967815,1733.3333333333335
120.71310529193757,100.79886384348987,72.62066346679629,1766.6666666666665
121.19203363914372,100.90085626911316,72.89993883792049,1800.0
121.24463809027031,101.01748949096377,72.78599920223374,1833.333333333333
121.23241078825443,101.01227332699213,72.76795741155534,1866.666666666667
121.38683992513269,100.92450369733976,72.97984106041545,1900.0
121.40225355581552,101.06285019395357,72.80187488455144,1933.333333333333
121.78658949572069,101.01057508774088,73.21100917431194,1966.6666666666665
121.66904970557938,101.1349722491275,73.00178343557339,2000.0
121.9445525592315,101.16652766194052,73.25916658944182,2033.333333333333
121.97493281438236,101.15088190776264,73.23981404256635,2066.666666666667
121.77354585611471,101.19673802242608,72.97431501559944,2100.0
121.89352237976091,101.1720569610478,73.13305841287493,2133.333333333333
121.81554072838478,101.28083588175328,73.01230964075002,2166.6666666666665
122.13437577485745,101.4077764691297,73.28452764691299,2200.0
122.2225781371482,101.54853055512363,73.19497745296222,2233.333333333333
122.0387583684602,101.45578663525913,73.14982643193653,2266.6666666666665
122.43955838905303,101.63837661327943,73.39967345669416,2300.0
122.28415487482508,101.67591354377235,73.24204633805006,2333.333333333333
122.28531800148774,101.58676853458964,73.36754587155964,2366.6666666666665
122.1745598809819,101.68178155219441,73.18852281180263,2400.0
122.46643317629557,101.72287999008185,73.60880547979174,2433.333333333333
122.46007934540043,101.71807587403922,73.61754587155964,2466.666666666667
121.60131470074472,101.4350617510956,73.06899880481751,2500.0
121.7288621249732,101.29577702185036,73.23237105819621,2533.333333333333
121.70866964930893,101.36136094583584,72.97896775978968,2566.666666666667
121.53709662590788,101.08065949557172,73.13569918175969,2600.0
121.3171983696485,101.0132236217094,72.88625846587601,2633.333333333333
121.32265330513927,101.00896386871379,72.87459777512181,2666.6666666666665
121.48391416784679,100.86794224493565,73.02515239209406,2700.0
121.27462902530633,100.79176159103504,72.75701927221229,2733.333333333333
121.17222546101685,100.61452548249515,72.78688901844069,2766.666666666666
120.7780122324159,100.43496941896022,72.49408256880734,2800.0
121.12670675953484,100.53843085514406,72.79621674695468,2833.333333333333
121.13298149795956,100.53341413273606,72.80322788499892,2866.666666666666
120.94447853701942,100.51215059372221,72.57406952839743,2900.0
121.40456252693798,100.62739363339695,72.94540052952405,2933.333333333333
121.19319931038729,100.70757650390983,72.73546887506926,2966.666666666667
121.38649097961948,100.69961825010776,72.92822178437288,3000.0
121.06636801570986,100.65878616796049,72.75057531220277,3033.333333333333
121.06093706851584,100.6575281519438,72.76416802184652,3066.666666666667
121.25749440029458,100.63520603847687,72.99800558436378,3100.0
121.23980974077948,100.77290499353487,72.81591342897605,3133.333333333333
121.23388358749348,100.6725169525329,73.01621613328831,3166.666666666666
120.95659844742413,100.7311067472615,72.70869258384215,3200.0
120.80511415525112,100.48712328767122,72.87248097412481,3233.333333333333
120.79430745814308,100.48386605783865,72.90213089802131,3266.666666666666
120.7673676333593,100.57971014492752,72.67462317313421,3300.0
120.94036697247708,100.40428339112025,72.6804179067841,3333.333333333333
120.72510815869413,100.31993495136696,72.47373508023688,3366.666666666666
120.88207266229901,100.11580458453598,72.80207999266962,3400.0
120.7104440562655,100.13004504918636,72.47120836014831,3433.333333333333
120.71884097943672,100.10672366767795,72.49753302074714,3466.666666666667
120.84963684839569,100.0530323925102,72.72518464037266,3500.0
120.70779320278265,100.0723851552205,72.5481597254145,3533.333333333333
120.79626735313046,100.06870767061994,72.68243388189146,3566.666666666667
120.5608450185634,100.03353686600596,72.34554017980425,3600.0
120.71888028588444,99.97500038179014,72.65570165391487,3633.333333333334
120.72575250836121,99.98214749316595,72.6624058887311,3666.666666666666
120.5555657366259,100.04836517463082,72.44525893007132,3700.0
120.7972139547728,100.01840999048815,72.63896474486822,3733.333333333334
120.47832195598724,100.07612895343685,72.41838090438449,3766.666666666666
120.76890073856148,100.1433912537158,72.55361466090527,3800.0
120.610416475131,100.2291226134657,72.4097330759094,3833.333333333334
120.60952774968588,100.23396463485642,72.39981919034048,3866.666666666666
120.98046336305971,100.29050596058964,72.79185437160982,3900.0
120.66268272501608,100.34516257546505,72.50767674910361,3933.333333333333
120.77276209739205,100.3490239342956,72.69973338236646,3966.666666666667
120.8292404163964,100.44194235937357,72.4203657368795,4000.0
120.70505041218472,100.33135668536056,72.61816983849714,4033.333333333333
120.71695626857895,100.3323833164782,72.62655143881584,4066.666666666666
120.47503907327386,100.33938586007172,72.40616285127639,4100.0
120.6012993778922,100.10025742392205,72.57889736753394,4133.333333333334
120.31545149481391,100.13345027455765,72.3545302013423,4166.666666666667
120.55880109823065,100.02474069554607,72.61845637583893,4200.0
120.34649176327032,100.02664734594265,72.3304148871263,4233.333333333333
120.33491458206223,100.02434411226358,72.31659548505186,4266.666666666667
120.61789402715208,99.88310195826055,72.45677423309122,4300.0
120.27224691131781,99.83074479620043,72.20793818054092,4333.333333333333
120.57646430750458,99.83720256253815,72.59791031116534,4366.666666666666
120.31614109282584,99.81965002604885,72.11574882780178,4400.0
120.65519733099642,99.86242946973542,72.47122672693447,4433.333333333334
120.47398179645123,99.75590695963959,72.42525512549416,4466.666666666667
120.36409395973152,99.76554707222459,72.11269318391723,4500.0
120.70430330704303,99.84840797626184,72.46333963685562,4533.333333333333
120.39367802838123,99.8580323785803,72.10251679658073,4566.666666666666
120.8922018348624,99.96931564592116,72.44749566079842,4600.0
120.29418344519016,99.92165425515614,72.18048787962367,4633.333333333334
120.30156906009623,99.92968342986731,72.1303361833839,4666.666666666667
120.75526959088604,100.01040849899296,72.51226111956706,4700.0
120.26230486685031,99.96596265687175,72.19198041016224,4733.333333333333
120.453376996756,99.94783450947834,72.3251541288071,4766.666666666667
120.2444536691112,100.04478575711452,72.0779638085574,4800.0
120.6519071998524,100.10553018772195,72.56184370339622,4833.333333333333
120.4600380006742,99.98852318347583,72.49685881523705,4866.666666666666
119.81090554421043,99.927809442531,72.03235392727605,4900.0
119.83291816027706,99.74489640925935,72.20263989306763,4933.333333333334
120.09746123441776,100.0442079659471,72.21064153238066,4966.666666666667
120.74905831526836,100.16170840828377,72.4871854004274,5000.0
120.7638683203752,100.27625570776256,72.36313710971245,5033.333333333333
120.7678174750093,100.2783845489325,72.34595211650006,5066.666666666666
121.02212143650499,100.25834567444157,72.67101690731828,5100.0
121.08560099517959,100.36067485616543,72.43965168714041,5133.333333333334
121.21755282098907,100.36240229084436,72.73410726723937,5166.666666666667
120.66857309779684,100.22974032563074,72.4059007118368,5200.0
120.80685085251295,100.24686745691312,72.58941008256078,5233.333333333333
120.80783481696724,100.24954261027321,72.6147779161478,5266.666666666667
120.89226212513884,100.4346846846847,72.4979637171418,5300.0
121.00641114339744,100.32461602324615,72.7394646618391,5333.333333333333
121.12243634393623,100.58596083894436,72.57210742202616,5366.666666666666
121.09533506108849,100.5033320992225,72.65549796371714,5400.0
121.01463963963964,100.62126681475996,72.55900592373196,5433.333333333334
121.00081759842035,100.62506170554116,72.54610946563001,5466.666666666667
120.94139883685335,100.55645852464035,72.81218243036425,5500.0
121.1506787751054,100.70710389288372,72.55245784775602,5533.333333333332
121.11424643993452,100.63156025082633,72.68274487999258,5566.666666666666
121.14395301264568,100.7554704934292,72.50655529382594,5600.0
121.27522935779815,100.63188073394495,72.71266736920407,5633.333333333334
121.28711567071659,100.61959149516493,72.72675427721298,5666.666666666668
121.1065738904042,100.61959149516493,72.50373481279446,5700.0
121.38902192505054,100.60873892085213,72.67473176799876,5733.333333333332
121.26450007774841,100.63212564142435,72.5,5766.666666666668
121.37292779196657,100.51844284498104,72.85581611330392,5800.0
121.10282485875706,100.48705208575187,72.56862471944896,5833.333333333332
121.09912545468616,100.49041095890408,72.54009751567216,5866.666666666666
121.17012769650385,100.38848251921648,72.63327547731218,5900.0
120.99682216463042,100.44020733061829,72.52392632358386,5933.333333333334
121.06105763297545,100.45365913859064,72.75974947550291,5966.666666666668
120.93851042823644,100.52323213624584,72.54371837591016,6000.0
121.05454769838332,100.50265333826978,72.73839935826237,6033.333333333332
121.08243860298657,100.50222139948168,72.76534925336296,6066.666666666666
121.08063166377389,100.59017790726507,72.53296243491198,6100.0
121.17466836102156,100.60214170592613,72.6682060500868,6133.333333333334
121.08357612199356,100.6923351103397,72.49493243243244,6166.666666666668
121.19792958095712,100.73665695512028,72.68602777089016,6200.0
121.09676419538808,100.79610401686092,72.52547731217456,6233.333333333332
121.09941420778576,100.80597570047114,72.52152553930077,6266.666666666668
121.22965294840294,100.7686425061425,73.02225122850123,6300.0
120.94158476658475,100.76079545454546,72.78306203931204,6333.333333333332
121.12859434777245,100.69137973590028,72.88302172035048,6366.666666666666
120.96826792545973,100.72727693446873,72.63939281747501,6400.0
121.10375786745651,100.59727878563496,72.81983524620513,6433.333333333334
121.09622979143528,100.60169073182772,72.84855917561397,6466.666666666668
120.9480439343453,100.64577934098484,72.65205787979761,6500.0
121.11574416882635,100.56196778970751,72.77426570406023,6533.333333333332
120.82074935042972,100.52894239195612,72.635010685239,6566.666666666666
120.93356702489125,100.48961456267394,72.80405270359606,6600.0
120.83366388389221,100.54643850990885,72.6561197976723,6633.333333333334
120.81864305151976,100.54749934658614,72.59549836262165,6666.666666666668
120.87826752372207,100.51836547291092,72.82741046831956,6700.0
120.84450286733393,100.62941438740526,72.61940562397183,6733.333333333332
121.14963946927419,100.65310640653108,72.92338914256723,6766.666666666668
120.9227587903387,100.73697400181419,72.61156465722677,6800.0
121.08603539197144,100.70173577479513,72.85812462524791,6833.333333333332
121.09140107313624,100.7097458604308,72.88409206217426,6866.666666666666
120.93432037267654,100.80323785803238,72.69789216364559,6900.0
121.10477683993666,100.79043094568209,72.88819703888197,6933.333333333334
120.79162452882228,100.81623302994085,72.7185038766817,6966.666666666668
120.73676333592951,100.64574456712636,72.82900383317299,7000.0
120.59974649134865,100.687619309418,72.64365235717231,7033.333333333332
120.78171064325336,100.8123563482578,72.69069289939014,7066.666666666666
120.92522447978916,100.68425730133923,72.87848977965739,7100.0
120.80372958229904,100.70952468511535,72.70785449419266,7133.333333333334
120.87678894302964,100.55608164015811,72.83834390610156,7166.666666666668
120.70071404492658,100.54742422849438,72.60341393153749,7200.0
120.85852654057352,100.47786760219648,73.00167785234899,7233.333333333332
120.873764490543,100.47913361805979,73.03006406345331,7266.666666666668
120.53442647956072,100.46865466748017,72.62300183038438,7300.0
120.6786912751678,100.41151616839537,72.80122025625381,7333.333333333332
120.76908478726659,100.55255586164678,72.71147842056935,7366.666666666666
120.78099450884686,100.5128431970714,72.86307199511897,7400.0
120.73044037878091,100.6158560877693,72.66524164138396,7433.333333333334
120.72838711654562,100.60810272440315,72.67029818270969,7466.666666666668
120.77896785265546,100.67461922711529,72.70252214152187,7500.0
120.76660231068615,100.72581287732523,72.63078054610645,7533.333333333332
120.91561705127027,100.72867825074316,72.83943182862922,7566.666666666666
120.858738622782,100.80633446722445,72.7083601483252,7600.0
121.02584965217123,100.86428549538782,72.88443504642824,7633.333333333334
121.07163967735977,100.880826303799,72.827658395419,7666.666666666668
120.94538935368207,100.94215623180409,72.75820538751493,7700.0
121.34755469458666,101.1629844871854,73.0338852758944,7733.333333333332
121.23366694467613,101.24336638556824,72.85353535353536,7766.666666666668
121.44387558999432,101.30362990636965,73.15809541380318,7800.0
121.28396599172855,101.34949187460606,72.95284657841734,7833.333333333332
121.3029073074735,101.36317513029844,72.98913026766908,7866.666666666666
121.19426078971534,101.29502601775327,73.01329966329966,7900.0
121.38542823645564,101.34843576453163,72.94323090213501,7933.333333333334
121.10090098372713,101.0264625662713,72.92876405871715,7966.666666666668
120.96457356501486,101.02892954552419,72.74573258557812,8000.0
121.04960007354971,100.90433943182863,72.86158867334744,8033.333333333332
121.07803928779379,100.88635040299101,72.8558732493641,8066.666666666666
121.1376627769322,101.04181848930708,72.78726381009486,8100.0
121.23453715234535,100.98762357209844,72.9329981704411,8133.333333333332
121.23952058814446,101.03147684799065,72.75428597905662,8166.666666666666
121.6612323332507,101.09701214976444,73.06530498388297,8200.0
121.42950347136127,101.12901376146792,72.81590937267543,8233.333333333332
121.41200719067692,101.14434044135879,72.8140032234069,8266.666666666668
121.33984326792546,101.18804763667778,72.85014809329878,8300.0
121.27037825496728,101.2750370233247,72.71964087375046,8333.333333333334
121.36244292237444,101.25353264223128,72.82634518079723,8366.666666666668
121.14070691696264,101.23135464231356,72.72627338837384,8400.0
121.20958442876251,101.27873868056514,72.80975662254203,8433.333333333334
121.21344341435663,101.28302815060806,72.82562304936734,8466.666666666666
121.36313710971243,101.43104405775641,72.79140441811677,8500.0
121.41774009205204,101.35617644333244,72.90481265251907,8533.333333333334
121.3528094399654,101.43689185432305,72.80508448398358,8566.666666666666
121.33998830121295,101.30402992426573,72.98191305954066,8600.0
121.19467705190566,101.36895819222951,72.7890216119697,8633.333333333332
121.10667769912048,101.36210965033251,72.79139468603475,8666.666666666666
121.49027566379164,101.35596451578186,73.13369617022585,8700.0
121.25370908475931,101.3123472164568,72.84842335070645,8733.333333333332
121.27340374828958,101.29145334624786,72.86671893977831,8766.666666666668
121.04023781067086,101.16511905856396,72.77985657810058,8800.0
121.05608164015811,101.1571205295578,72.7895865894395,8833.333333333334
121.0647850203794,101.14922926051914,72.77775734730777,8866.666666666668
121.00065888265759,101.13513223621707,72.67736201771322,8900.0
121.11875210689222,101.06648585700714,72.81534430449571,8933.333333333334
121.11945077273563,101.10878332614986,72.65333107567267,8966.666666666666
121.2455052028816,101.07668862754757,72.84811587956406,9000.0
121.15131457422571,101.14384890092974,72.71070131149558,9033.333333333334
121.14500338649096,101.15545532910534,72.70332799704451,9066.666666666666
121.26156109221293,101.17627409518556,73.00125647390519,9100.0
121.15828506634796,101.20633753179493,72.82156538261162,9133.333333333332
121.3474159527418,101.27751832493121,72.86391612284662,9166.666666666666
121.14823594606243,101.33292284957822,72.71364140139154,9200.0
121.31523613078012,101.3279354719537,72.97798780863245,9233.333333333332
121.31555938673729,101.34266670771505,73.00297087617756,9266.666666666668
121.2502924696755,101.41661535619728,72.88459762329906,9300.0
121.55186420782749,101.5499026966917,73.11247026843358,9333.333333333334
121.22156886891199,101.48203620466721,72.8589218644172,9366.666666666668
121.24795439919096,101.42234378351871,73.02067052802549,9400.0
121.10497686249272,101.40354264349851,72.86031687658975,9433.333333333334
121.10782691305813,101.39646348564249,72.89608041432994,9466.666666666666
121.63329008741856,101.42124610014521,73.19545608995149,9500.0
121.37505957597284,101.42179788755129,72.99514167550697,9533.333333333334
121.45775871346649,101.31148624755932,73.11718401672739,9566.666666666666
121.38894269944498,101.34100518118784,72.98056670202789,9600.0
121.79421202023943,101.35750647908182,73.33967357768728,9633.333333333332
121.82867456497593,101.35266259410095,73.36650006170555,9666.666666666666
121.43212390472664,101.34622979143528,73.02892447241763,9700.0
121.53665309144762,101.34826607429348,73.07617549055904,9733.333333333332
121.34833039878912,101.25218546319464,72.92390263491181,9766.666666666668
121.41031317743642,101.20083636978615,73.13970757806375,9800.0
121.10177438631979,101.15076154576937,72.90930403603934,9833.333333333334
121.09959854126444,101.16286659924612,72.92281879194631,9866.666666666668
121.47355821209034,101.33404380193373,72.96801346801348,9900.0
121.22146111692629,101.29567144880241,72.86338587525398,9933.333333333334
121.28860728421957,101.28593783559879,73.16935657083243,9966.666666666666
121.4804930034288,101.52912921261546,73.04441973249314,10000.0
121.61559015228741,101.54341580947089,73.17828128378588,10033.333333333334
121.64266518394959,101.54043493034321,73.19006579557039,10066.666666666666
121.54140796342631,101.62581472214501,73.06364871961203,10100.0
121.7328174713496,101.69159484755815,73.32199672566645,10133.333333333332
121.55116918419672,101.74974515800207,73.05662125845612,10166.666666666666
121.19532383439473,101.52824483437945,73.20700661260518,10200.0
121.35462717812942,101.61315497814172,73.01408472384705,10233.333333333332
121.3390954990456,101.59983991133551,73.00096976787142,10266.666666666668
121.29834985530451,101.49221107074686,72.968382488763,10300.0
121.22138415122221,101.447417030971,72.93534880857091,10333.333333333334
121.448001970322,101.29054553291051,73.17443507173203,10366.666666666668
121.16305047347616,101.27807912721032,72.98795623793326,10400.0
121.35918298550457,101.19135178204776,73.17546198400294,10433.333333333334
121.35354417578377,101.19777205724615,73.21191505010573,10466.666666666666
121.60674435903795,101.36587217951895,73.00057339449542,10500.0
121.7953446565832,101.30397656831144,73.18142511777833,10533.333333333334
122.05587280783872,101.49897023029396,73.0618797977907,10566.666666666666
122.0932980873892,101.32506608614523,73.29247395428393,10600.0
121.6504759693522,101.30051853571705,72.89415679900937,10633.333333333332
121.6303846451513,101.30869127776488,72.85741041715038,10666.666666666666
121.7221893951174,101.34905924428551,72.87611568962836,10700.0
121.63943967185202,101.36901168640198,72.90051853571705,10733.333333333332
121.7640585094033,101.4356628743905,73.07296648866186,10766.666666666668
121.7181177927405,101.4820989087532,73.02119031034748,10800.0
121.9937930500735,101.51531615200062,73.30610633851869,10833.333333333334
121.99365374197045,101.52056342388359,73.30986765730206,10866.666666666668
121.86997910378452,101.55436885689959,73.11579599102238,10900.0
121.86088209769406,101.56652925861643,73.0878688321349,10933.333333333334
121.82478923878008,101.62651872055542,73.01469129680139,10966.666666666666
121.56426404339432,101.4641751708498,73.21805951395912,11000.0
121.5891948403364,101.59525237150808,73.03451562812295,11033.333333333336
121.78248796741948,101.71408737504628,73.07080710847835,11066.666666666664
122.04639668859852,101.60119544064501,73.44449077935317,11100.0
121.7188706638248,101.67993389553024,73.08151854940846,11133.333333333332
121.58352318207004,101.53483467766762,73.13039529585615,11166.666666666664
121.41733883381563,101.4695061880426,72.98402191983251,11200.0
121.49684349238454,101.3178725751586,73.20762465140511,11233.333333333332
121.4985596518648,101.30543041892679,73.2130336183384,11266.666666666668
121.28819220986179,101.24185590389507,72.968971223683,11300.0
121.41425331739755,101.10957371824335,73.04979927063222,11333.333333333336
121.28206391232071,101.09873160519672,72.7538482852041,11366.666666666668
121.55964847249253,101.11350508139499,72.94500046334909,11400.0
121.29842682100856,101.03906779139214,72.77980112062066,11433.333333333336
121.27823102025737,101.0548303675882,72.76035958376947,11466.666666666664
121.60379019553328,101.06483798226921,72.96804435795262,11500.0
121.47102523708028,101.128023352794,72.82845272294814,11533.333333333336
121.97018348623855,101.22483263079592,73.11097508058518,11566.666666666664
121.54514564606308,101.15549995366509,72.81975720507832,11600.0
121.59558891668983,101.17065146881664,72.85719581132426,11633.333333333332
121.60522657770365,101.18038179964786,72.88005436629291,11666.666666666664
121.66216698474764,101.22296699716057,72.82786389238002,11700.0
121.70751861118835,101.23357427485868,73.11421554999538,11733.333333333332
121.58865412535135,101.31305408828344,72.92110709541903,11766.666666666668
121.92748884205307,101.45498078353585,73.1361734440863,11800.0
121.62575294226671,101.39398572884814,72.94385753560066,11833.333333333336
121.60738887344395,101.40953881320854,72.93323139653415,11866.666666666668
121.76661106477621,101.41038828653507,73.13851048713434,11900.0
121.67509962005377,101.52591665894421,72.96461557470731,11933.333333333336
121.9215379370196,101.65123667245228,73.06401872055542,11966.666666666664
121.86483387056782,101.66436275725269,73.00810500867841,12000.0
122.07407636994793,101.47774609471857,73.31917927101414,12033.333333333336
122.09281242251429,101.47298847012148,73.33825626084801,12066.666666666664
121.76974336722044,101.40120567815521,72.97661480287626,12100.0
121.92899206545995,101.43595028514757,73.14082258864369,12133.333333333332
121.76840367765026,101.40381648772059,73.070575712699,12166.666666666664
122.02474894619392,101.37653421770395,73.26252169600794,12200.0
121.90538990825694,101.39970245474836,73.07399888420531,12233.333333333332
121.87918423010169,101.39443342424994,73.0560841805108,12266.666666666668
122.0167679147037,101.32376642697744,73.1692908504835,12300.0
121.93326927845276,101.34586536077364,73.0489399950409,12333.333333333336
121.99784030605947,101.36588300629394,73.27980377637913,12366.666666666668
121.87129766753056,101.41844070097495,73.07213377761323,12400.0
121.72884982451818,101.14745089588078,73.11044578535805,12433.333333333336
121.72747983498553,101.1452188904624,73.09970137306816,12466.666666666664
121.80724677972384,101.32894696197451,73.02451116671301,12500.0
122.01930621196678,101.40308281592688,73.260463966886,12533.333333333336
121.79998764402436,101.41925369907024,73.03496741111421,12566.666666666664
121.89528310629231,101.48826182312422,73.09772032249097,12600.0
121.75960518426271,101.541457189859,73.15003920483373,12633.333333333332
121.76700029211443,101.53227864643392,73.16848853835154,12666.666666666664
121.77985657810059,101.448162789985,73.3262388526248,12700.0
121.84909982626878,101.65124609873469,73.2436695724367,12733.333333333332
121.9711114186,101.64657226757684,73.38671340497825,12766.666666666668
121.67760718335323,101.56450920903437,73.21569979467378,12800.0
121.7220894241672,101.41935582728078,73.3193129232938,12833.333333333336
121.74657534246576,101.39810303086023,73.35478532683645,12866.666666666668
121.60252520609235,101.37755508565478,73.1558027642426,12900.0
121.6777753832892,101.30769349178007,73.09773105104365,12933.333333333336
121.5488952223346,101.26039655542276,73.10024210106954,12966.666666666664
121.78477521375379,101.16039961999329,73.39479329471975,13000.0
121.59186626439259,101.11504833446214,73.04225417154116,13033.333333333336
121.59748476079058,101.11555630810908,73.03735915276151,13066.666666666664
121.7349455082815,101.05222892679019,73.25906655994089,13100.0
121.62035896804385,101.0952373622314,73.08807955175173,13133.333333333332
121.641478357244,101.12583892617448,73.10698232867432,13166.666666666664
121.63666030416846,101.13105720091127,73.0919740163783,13200.0
121.75506434332857,101.12160581244996,73.23499168770395,13233.333333333332
121.7747213841512,101.13058001354595,73.2472908072163,13266.666666666668
121.66027338218088,101.23968659565296,73.07890523982512,13300.0
121.69667816021179,101.31677544486178,73.13692198756233,13333.333333333336
121.66796995258913,101.34257434887013,73.1075056954621,13366.666666666668
121.80641586109228,101.33335385752108,73.24642879133057,13400.0
121.69192167969952,101.41878578905241,73.10141001169876,13433.333333333336
121.67340373129733,101.43793485622804,73.08598608460069,13466.666666666664
121.97210762884058,101.50851240687149,73.36263161135399,13500.0
121.8043685733637,101.56929991995564,73.2262483837202,13533.333333333336
121.83769472323131,101.6419401514685,73.29879625638814,13566.666666666664
121.80198263653715,101.68547195369743,73.22206144941812,13600.0
121.872190751801,101.58726371528843,73.34983991133552,13633.333333333332
121.87613139585,101.57908995751491,73.38915399298072,13666.666666666664
121.51385351784235,101.47263048080757,73.14777085698506,13700.0
121.51335501901316,101.29381041828928,73.33779264214047,13733.333333333332
121.39590110108276,101.26311449122645,73.20644156320155,13766.666666666668
121.59419778466447,101.17224080267559,73.26186677303549,13800.0
121.40833218796291,101.18170156228523,73.18183900673478,13833.333333333336
121.40868343488951,101.18080053756051,73.17414211756082,13866.666666666668
121.42974297887936,101.18443517967043,73.19381194544981,13900.0
121.68231635983005,101.27256634443691,73.09372883443137,13933.333333333336
121.95106520534449,101.22132257865894,73.49441228988363,13966.666666666664
121.73246721261006,101.24593621082444,73.21462656240378,14000.0
121.76543932023891,101.28232559571457,73.2526168339388,14033.333333333336
121.75925127763071,101.29328551197584,73.22878825195492,14066.666666666664
121.71444184471399,101.32040822609444,73.13561357059294,14100.0
121.78260267224924,101.34728464995995,73.1663536728034,14133.333333333332
121.65250835095465,101.36371854984523,73.17089577395728,14166.666666666664
121.84683824887631,101.38667569730929,73.30367588202697,14200.0
121.68235726762892,101.441482026294,73.26730716190126,14233.333333333332
121.76930299858385,101.45777661474048,73.18517948402192,14266.666666666668
121.7442922374429,101.52152860776562,73.30331586528149,14300.0
121.71577640893629,101.57143513836536,73.19702123747356,14333.333333333336
121.89672741826244,101.64401822547873,73.21579644110584,14366.666666666668
121.8878301828705,101.70374361184656,73.20737639307923,14400.0
122.2295271227141,101.73529955052028,73.61688011821931,14433.333333333336
122.24450464872852,101.74547441659996,73.64809740779508,14466.666666666664
122.02559879317776,101.8394649344252,73.39506495905424,14500.0
121.91197021237473,101.82208635959671,73.43850939290859,14533.333333333336
121.8462658208452,101.74164138396006,73.38507860623334,14566.666666666664
122.03207930546148,101.63017979188473,73.48491472199987,14600.0
121.89548057385628,101.63476694784805,73.31563635244135,14633.333333333332
121.7751831080874,101.62756274708099,73.33359382182587,14666.666666666664
121.92352687642384,101.49975370974691,73.36029185394987,14700.0
121.8346776676313,101.48773166676928,73.19399975370975,14733.333333333332
121.92061757280956,101.42086386306259,73.20757650390985,14766.666666666668
121.97581317764805,101.55465974732029,73.12712754455876,14800.0
121.8305676990333,101.45057262483836,73.15975001539313,14833.333333333336
121.83815651745579,101.44849455082813,73.16227449048705,14866.666666666668
121.81197278492702,101.4796040884182,73.04998152823102,14900.0
122.05775506434333,101.39597315436241,73.3751000554153,14933.333333333336
121.81388153438827,101.44564681977707,73.15371590419309,14966.666666666664
121.97458592451204,101.39802044209101,73.28263345853087,15000.0
121.87597746444185,101.52344375346344,73.21447263099563,15033.333333333336
121.8499322701804,101.54000677298195,73.2081922295425,15066.666666666664
122.01511606428171,101.51961086140017,73.42338833815651,15100.0
121.92441967859119,101.59429838064158,73.26625515670217,15133.333333333332
122.04376269934116,101.62439197093771,73.41452188904623,15166.666666666664
122.12507336360548,101.79404133073861,73.24920458406697,15200.0
122.26835634633801,101.78156179532327,73.47873227689742,15233.333333333332
122.27453433416737,101.77794767244309,73.48620764217095,15266.666666666668
121.99807585739794,101.7855427621452,73.26145249676743,15300.0
122.15644049011759,101.84622252324364,73.428714364879,15333.333333333336
122.04299304230034,101.93020749953821,73.26587032818176,15366.666666666668
122.23226710177944,101.99238039529585,73.45386675697307,15400.0
122.04077643002277,101.99838372021429,73.25898959423681,15433.333333333336
122.04871929068408,101.99721384151222,73.27319746321041,15466.666666666664
122.11983560125609,101.91572255402993,73.43000738870758,15500.0
122.01131395850008,101.93625700387906,73.28414198633087,15533.333333333336
122.0198571516532,101.86147712579272,73.26788682962871,15566.666666666664
122.01406933070622,101.81378917554336,73.20077273566898,15600.0
122.12177513699896,101.74892248014284,73.36452496767441,15633.333333333332
122.12523859368264,101.7413952342836,73.40140693307062,15666.666666666664
122.00606489748169,101.77990887260636,73.2630225971307,15700.0
121.96422325181798,101.59596207541959,73.36111196342549,15733.333333333332
122.05142848346777,101.73120497506314,73.27522935779815,15766.666666666668
122.13681423557665,101.6986330890955,73.3986669540053,15800.0
122.024906101841,101.74986146173264,73.28551197586354,15833.333333333336
122.0219967982267,101.74579767255709,73.30064343328613,15866.666666666668
122.31868419432301,101.69957207068528,73.60687457668863,15900.0
122.1209900868173,101.7661166184348,73.39955975617266,15933.333333333336
122.11344744781724,101.82710424234959,73.38499784496028,15966.666666666664
122.036897358537,101.86156948463764,73.33115263838431,16000.0
122.14631180346035,101.85370358968045,73.49675204728773,16033.333333333336
122.17127947786464,101.83353857521088,73.5186410935287,16066.666666666664
122.08483159903946,101.90842620528292,73.39218644172156,16100.000000000002
122.22019887937937,101.9122437042054,73.53771319500032,16133.333333333332
122.13415122221537,101.978110953759,73.43990517825256,16166.666666666668
122.26999568992056,102.00312480758572,73.61641832399481,16200.0
122.17525090819531,102.1031032571886,73.45235822917306,16233.333333333336
122.16036574102579,102.115817991503,73.41429099193398,16266.666666666664
122.05769997852171,102.00446442269337,73.5229357798165,16300.0
121.96261237765027,102.02436255407936,73.40621644012151,16333.333333333332
122.27393633396956,102.02590665599408,73.55991010405762,16366.666666666668
122.07302506003323,101.9416138168832,73.33657102395172,16400.0
122.09497567883751,101.87933316913984,73.35097900375592,16433.333333333332
122.07359460624343,101.88878455760113,73.32611908133735,16466.666666666664
121.969136752663,101.83791022720276,73.20534449849147,16500.0
121.97124561295486,101.65762576196043,73.27510621267162,16533.333333333336
121.81555938673729,101.65885721322576,73.12782464133981,16566.666666666668
121.52835173561796,101.44073853484215,73.2055252668713,16600.0
121.46844220797152,101.3656991193888,72.96758307508209,16633.333333333332
121.42732371058192,101.444776439582,72.86888235113848,16666.666666666668
121.46871073519046,101.393215040912,72.98237871962245,16700.0
121.47972723354471,101.40938058001352,72.88855366048887,16733.333333333336
121.22383592187047,101.33240176539759,72.92463462683833,16766.666666666664
121.4550058493935,101.42218767317284,72.84225109291299,16800.0
121.64427990887259,101.37759374422757,73.15582476448493,16833.333333333332
121.64190936518686,101.36994335324178,73.1896588879995,16866.666666666668
121.39327935471952,101.45602179668738,72.87223693122344,16900.0
121.26534932956952,101.41876591697094,72.95802522168697,16933.333333333332
121.23296308796907,101.42390537264887,72.89942008529962,16966.666666666664
121.52832337910229,101.49079490179176,73.14180161320117,17000.0
121.23299377128654,101.51270289343685,72.94773096867233,17033.333333333336
121.22575250836121,101.51828725721823,72.9377435488325,17066.666666666668
121.30646497499308,101.59451995949804,72.95507962320886,17100.0
121.27150133472428,101.64187966002883,72.88907980730878,17133.333333333332
121.51557785850625,101.80139769718613,72.99302690721014,17166.666666666668
121.50096976787142,101.82562650083122,72.97715657902837,17200.0
121.47721763677087,101.73076923076924,73.12512656868459,17233.333333333336
121.49351047835293,101.7325181798656,73.17599950906694,17266.666666666664
121.39918996041851,101.80370347641987,73.01239606026203,17300.0
121.57207511276121,101.74265901629283,73.17665920039275,17333.333333333332
121.385581909116,101.67429658494676,72.97985640207419,17366.666666666668
121.29813228264686,101.58762083657857,73.06287319985951,17400.0
121.42275750053629,101.6419202598756,73.00360087033802,17433.333333333332
121.41831387331064,101.63949924918025,73.00608317244337,17466.666666666664
121.2252256379713,101.47769582016157,72.94932881293809,17500.0
121.21226004489851,101.45318489332784,72.9264824911043,17533.333333333336
121.33353186420489,101.33817443227808,73.119805745178,17566.666666666668
121.47583276891815,101.47926543932024,73.00153931408164,17600.0
121.21116048930223,101.31453398695804,72.99731219743131,17633.333333333332
121.23791634214506,101.30677601136207,72.97956659183579,17666.666666666668
121.47897296964472,101.38518256265007,72.91818545656055,17700.0
121.5028194048604,101.31312249088293,73.11269958015384,17733.333333333336
121.42713983635193,101.34793601176796,72.99642977536698,17766.666666666664
121.65500892802166,101.36763438211928,73.08235330336801,17800.0
121.43851979557907,101.39309463702972,72.9112123637707,17833.333333333332
121.43511791145865,101.39900560310323,72.89688134967058,17866.666666666668
121.40584107137384,101.37744782568724,73.03366430694739,17900.0
121.48827042669785,101.40060648974816,72.95035712086694,17933.333333333332
121.7674914280419,101.48942019584223,73.1469125505823,17966.666666666664
121.68496895561115,101.57107774997685,73.02557686961356,18000.0
121.74223206186676,101.57418938240856,73.20109773534432,18033.333333333336
121.7673385298956,101.57199083683102,73.23043217563766,18066.666666666668
121.74339727550738,101.69329379421123,72.98787569888488,18100.0
121.9047354276712,101.69162573749728,73.12315818737838,18133.33333333333
121.80324653260435,101.77711364408613,73.01649522750441,18166.666666666668
121.83625243258273,101.83025978438823,73.03705248200663,18200.0
121.65262299119513,101.74428914475708,72.94530817067914,18233.333333333336
121.63255033557046,101.75862015885721,72.95314327935472,18266.666666666664
121.96505757034664,101.82033126039036,73.40898035835231,18300.0
121.74107197832643,101.89023151283787,73.14629641031955,18333.33333333333
121.9278102122139,101.91846600562198,73.19076081920119,18366.666666666668
121.6527923157441,101.77018040761035,73.07416415245366,18400.0
121.73751616279785,101.61244689366416,73.21059355950987,18433.33333333333
121.75278615848777,101.61692629764177,73.17683640169939,18466.666666666664
121.56885351887198,101.59751554707222,73.01262237546949,18500.0
121.71870574472014,101.4248814728157,73.17531248075856,18533.333333333336
121.53743611846559,101.44415368511793,72.98014284834677,18566.666666666668
121.57088541345976,101.39731235761343,72.97013730681606,18600.0
121.50935902961642,101.38122652546025,72.88475155470722,18633.33333333333
121.51154485561231,101.37485376516224,72.90243827350533,18666.666666666668
121.66152022658702,101.29149990764117,73.05430700080043,18700.0
121.58258420048028,101.31628286435564,72.92857582661165,18733.333333333336
121.799227264331,101.26990333107568,73.21150175481804,18766.666666666664
121.29623860356442,101.18510713031263,72.98433133275302,18800.0
121.50911709723879,101.29422941374766,73.0269375746989,18833.33333333333
121.51964389690785,101.30147712298121,73.00914774294381,18866.666666666668
121.47968189758205,101.3268977352824,72.98525941589286,18900.0
121.6054671937728,101.31485397321563,73.12676595875088,18933.33333333333
121.503508933223,101.39637154852748,72.96927768073306,18966.666666666664
121.62045132688871,101.44720152699956,73.02101163721446,19000.0
121.51788176887008,101.4619686800895,72.98188838834237,19033.333333333336
121.615648666954,101.4668277815405,72.94355335262607,19066.666666666668
121.75674219567759,101.47290807216305,73.15072963487471,19100.0
121.67617449664431,101.51708638630623,73.0466873960963,19133.33333333333
121.78623545348192,101.52619912566959,73.17331137245245,19166.666666666668
121.55864055652599,101.59601299377891,73.02306089301584,19200.0
121.8706976171418,101.51870266609198,73.3219475401761,19233.333333333336
121.81408783059055,101.52044068523796,73.40519751156877,19266.666666666664
121.5821531925374,101.519287605443,72.98094329166922,19300.0
121.5483129539395,101.45297416567068,73.0744537403083,19333.33333333333
121.47153014005087,101.39698446262756,73.02997149949434,19366.666666666668
121.4529894885232,101.26859428151144,72.97090190309828,19400.0
121.41505010572769,101.22394348931995,72.996736232417,19433.33333333333
121.40772578223162,101.22097085593454,72.99316600778401,19466.666666666664
121.54526370629156,101.065535840152,73.13168459440409,19500.0
121.38670282859856,101.11415525114157,72.94934264962765,19533.333333333336
121.58256845471459,101.15133065817992,72.99243577325771,19566.666666666668
121.55148132773705,101.14373568254848,72.91919191919192,19600.0
121.70073643589626,101.09041710868195,73.12794612794613,19633.33333333333
121.72013898497916,101.07602662853806,73.18773734298848,19666.666666666668
121.6450809464508,101.1187368356318,72.96383930630506,19700.0
121.87002444536692,101.11392463447258,73.22907922451301,19733.333333333336
121.82483339503887,101.26831111933849,73.03912131309391,19766.666666666664
121.83967357768728,101.32569727261507,73.04518388251266,19800.0
121.77462051092188,101.34407009749478,73.05525731210663,19833.33333333333
121.76915957052944,101.35391213130941,73.05655312847094,19866.666666666668
121.800907071455,101.42521288411699,73.0830710847834,19900.0
121.79965753424658,101.45490867579909,73.0119245958287,19933.33333333333
121.87444465012959,101.52395717635444,73.0844131803036,19966.666666666664
121.87998272244849,101.53862766876465,73.06079538442552,20000.0
121.83377150500436,101.47694602032502,73.25484679365958,20033.333333333336
122.01962236208813,101.57592866839443,73.30061397013452,20066.666666666668
121.74922743415894,101.54081146318589,73.1425364758698,20100.0
121.57995464435659,101.50586865250835,73.10315344304495,20133.33333333333
121.62253685146028,101.53127394195705,73.06279304955409,20166.666666666668
121.91649045386288,101.48735864668566,73.45193221170051,20200.0
121.58677331372007,101.5006895283626,73.14028071465783,20233.333333333336
121.59126290950323,101.49678220097454,73.1316539486991,20266.666666666664
121.63275719407923,101.44168122337656,73.13988232049279,20300.0
121.55415096074283,101.3592442769146,73.09533878826882,20333.33333333333
121.57137384695535,101.22176764426466,73.06806411081487,20366.666666666668
121.50196132512028,101.18496215255432,72.99099016272869,20400.0
121.55903895069108,101.09892433575436,73.12190861450767,20433.33333333333
121.59619686800896,101.07181820967793,73.13762986117496,20466.666666666664
121.45962428365664,101.09494039410377,72.97393582789374,20500.0
121.48293034231251,101.05603567160065,72.98863044344336,20533.333333333336
121.44001103245381,101.07295210076308,72.93006650117988,20566.666666666668
121.49327326775152,101.05248076982012,72.93234960620269,20600.0
121.44436272256443,101.07814654776136,72.89600380006742,20633.33333333333
121.45956299224665,101.07287548650056,72.90599429989886,20666.666666666668
121.78662927890656,100.98463117894028,73.29807544972573,20700.0
121.54789923692196,101.04865005669457,72.99334988201403,20733.333333333336
121.56740522815727,101.08240630075693,72.9993104716374,20766.666666666664
121.54601452606414,101.1061260764304,72.93408108853544,20800.0
121.5847813428948,101.14452514480095,73.00873402592626,20833.33333333333
121.5917072722258,101.15249302810213,72.9902853115136,20866.666666666668
121.5475468113144,101.20774723422512,72.94623211056971,20900.0
121.71954583065184,101.16194722809598,73.08354019184213,20933.33333333333
121.59949128129692,101.24098250130243,72.94591033066715,20966.666666666664
121.65267690233213,101.2999601605835,72.99998467714751,21000.0
121.61954889522234,101.36520486653795,72.98787962367074,21033.333333333336
121.61838435843217,101.37916398516748,72.96596794459256,21066.666666666668
121.67737734056573,101.43922956697618,73.04667340872176,21100.0
121.6469155097913,101.47198982562594,72.99537249854433,21133.33333333333
121.83207622683331,101.57136260082508,73.13627547564805,21166.666666666668
121.69066225368515,101.6083938586007,73.0676197480923,21200.0
121.83221476510069,101.58395390885971,73.2468664766633,21233.333333333336
121.83630596671877,101.59782109037418,73.2511415525114,21266.666666666664
121.6751095583954,101.62216910300022,73.03538046642763,21300.0
121.62077486272119,101.49884075655888,73.11233984136669,21333.33333333333
121.64841714933651,101.43458674266802,72.95749440715883,21366.666666666668
121.91682425472379,101.32824439217134,73.13727841581724,21400.0
121.76160386206048,101.35204403240934,72.94116200052274,21433.33333333333
121.70774718263304,101.35667174023338,72.93618068047292,21466.666666666664
121.87243823316885,101.2192395799702,73.06687883400213,21500.0
121.73466783512444,101.27131282382423,72.94096213274295,21533.333333333336
121.8497763018311,101.22216072444384,73.09097058868748,21566.666666666668
121.75271743308274,101.2513567947358,72.9906984610181,21600.0
121.97710745199328,101.14464277477975,73.22798763894654,21633.33333333333
122.01797272573528,101.13046753686024,73.2649785526498,21666.666666666668
121.5813949924918,101.06712941681224,72.9220986178787,21700.0
121.60252520609235,101.07777879930129,73.00372345315805,21733.333333333336
121.54301124697372,101.10741319604055,72.87966963930005,21766.666666666664
121.84024414618023,101.15223775041129,73.11254093445875,21800.0
121.56752781097731,101.15935766602313,72.89332230087953,21833.33333333333
121.37114582856094,101.0381331989432,72.84829187092437,21866.666666666668
121.48490401795941,101.0543058291718,73.0192727661459,21900.0
121.4286892380996,101.11244483132513,72.93611887417724,21933.33333333333
121.79091496829012,101.30336801921064,73.02795394372266,21966.666666666664
121.71270241980172,101.35056338895387,72.94775568006895,22000.0
121.84747632619288,101.39195856700684,73.2026600471944,22033.333333333336
121.83970763997424,101.40545800006129,73.24646808249824,22066.66666666667
121.80546148636164,101.47854196170185,73.0020780740102,22100.0
122.13207314820515,101.53992980727787,73.27666091989407,22133.33333333333
121.91401391539928,101.62750138538266,73.02832337910228,22166.66666666667
121.7761958822988,101.5517474149305,73.01839464882944,22200.0
121.69764658954928,101.5730723205793,72.9681660581142,22233.333333333336
121.68314872203985,101.58348930686384,72.96689270043879,22266.666666666664
121.7687551778098,101.49604185204504,73.13856586174097,22300.0
121.664247798472,101.46135436163358,72.96525114295358,22333.33333333333
121.67730355005985,101.38337271025743,72.95003221748334,22366.66666666667
121.5707403884508,101.32943143812707,72.91158602068056,22400.0
121.6064049113483,101.21300835356821,73.07877094118905,22433.33333333333
121.63806294955788,101.19489622944059,73.0915380033903,22466.666666666664
121.75304784188164,101.3321531925374,72.9321778215627,22500.0
121.50053516819573,101.05299694189604,73.02969418960245,22533.333333333336
121.30765601217657,101.0993911719939,72.88608828006087,22566.66666666667
121.91088910781357,101.28620466720028,73.0783049073333,22600.0
121.74505880179792,101.28190998091247,72.90676374607473,22633.33333333333
121.76822547872663,101.26919524659807,72.90362354534818,22666.66666666667
121.68241855903895,101.28744139008921,72.99966289724495,22700.0
121.65632374122768,101.32043149152643,72.93558272808066,22733.333333333336
121.89361800381752,101.27636845021857,73.0214272520165,22766.666666666664
121.7130795868959,101.35495387821396,72.93777389598847,22800.0
121.8551530752965,101.35204253623856,73.14336060801078,22833.33333333333
121.86256933590755,101.35259415892862,73.14326867089578,22866.66666666667
121.86757280955605,101.42755987931776,72.95588325842004,22900.0
121.80383684226656,101.50586865250835,73.04408384664889,22933.33333333333
121.88952342836029,101.57696570408226,72.99310387291422,22966.666666666664
121.92121378720543,101.60448068905485,73.26487072585941,23000.0
121.30938710309387,101.39849601398495,72.99923142999229,23033.333333333336
121.29351839293518,101.40069623400696,72.98981267989812,23066.66666666667
121.98199407940916,101.57969908749656,73.30553605761895,23100.0
121.32492427324922,101.51323899513241,72.9967900899679,23133.33333333333
122.08758552974749,101.80554447546871,73.11055199288147,23166.66666666667
122.09134289760479,101.85000923588447,73.05636968166985,23200.0
122.11607967489685,101.69529277753831,73.22113786096915,23233.333333333336
122.16144326088293,101.67363462840956,73.23162058986514,23266.666666666664
121.99887630072037,101.66385998399113,73.10659750015392,23300.0
121.94858690967304,101.5428698971738,73.06308109106581,23333.33333333333
121.90163783018286,101.46925989778956,73.03976048272891,23366.66666666667
121.84125524807699,101.39555943734486,73.22296282675983,23400.0
121.8238408964965,101.38359706914598,72.97332368696509,23433.33333333333
121.83640169940271,101.36871190197651,72.94361492518931,23466.666666666664
121.84258833624467,101.29864239526829,73.16426097882382,23500.0
121.65016778523493,101.30039658328249,73.06572605247102,23533.333333333336
121.85176672489351,101.30279488829642,73.10157518923722,23566.66666666667
121.86159924972708,101.34286548898422,72.99051396768293,23600.0
121.70642946890993,101.28852931261684,72.97834880941436,23633.33333333333
121.69948821672642,101.30043516901108,73.00049033128008,23666.66666666667
121.6247126965156,101.30769820109712,72.92933100425975,23700.0
121.66609972112407,101.34939168275568,72.97090190309828,23733.333333333336
121.65123655419693,101.35686923477677,72.93945940976374,23766.666666666664
121.8055070331893,101.33347123900585,73.13185314578162,23800.0
121.71312555545342,101.39520701173728,72.99610799546444,23833.33333333333
121.70964726793541,101.39822561368021,72.9882473721308,23866.66666666667
121.70929484232784,101.486086849928,72.99595476693942,23900.0
121.70678189451748,101.51492445833715,72.96638166161013,23933.33333333333
121.8330575219883,101.52211087616072,73.13517820477459,23966.666666666664
121.56065118125868,101.50269543837143,72.96061452940549,24000.0
121.76767306546938,101.5410729830027,73.20413555077046,24033.333333333336
121.97375195366371,101.6447856332935,73.2226257240048,24066.66666666667
121.75843523030248,101.738009867917,73.03954828230823,24100.0
121.64953192529131,101.72778363189322,73.05238160687833,24133.33333333333
121.82401703901199,101.84974410836321,73.06867702491495,24166.66666666667
121.94040942661886,101.74937942447364,73.24144218687749,24200.0
121.58685725630336,101.64253752997051,73.05563445885066,24233.333333333336
121.5493501931858,101.65744261694228,72.99436477756906,24266.666666666664
121.56132313190086,101.52668713061804,72.98107848078068,24300.0
121.50808631511431,101.48206349933572,72.92129014523297,24333.33333333333
121.7710612607643,101.37418405810426,73.04978394777972,24366.66666666667
121.620728754865,101.40680641108149,72.84755294045542,24400.0
121.66914896877199,101.32383316478195,72.88559958321841,24433.33333333333
121.66134963684841,101.30824982378721,72.8805890104502,24466.666666666664
121.39138070585359,101.2152838227883,72.8396939570257,24500.0
121.8393398915142,101.18931384266493,73.15551163004505,24533.333333333336
121.60902209555333,101.21026018203548,72.8599031595722,24566.66666666667
121.85749427301936,101.29651153852068,72.97802991866921,24600.0
121.61630045049186,101.20524960926727,72.83747050350894,24633.33333333333
121.82188705932998,101.30865734975323,72.9116430668942,24666.66666666667
122.09912995186968,101.33072627421943,73.10412810070345,24700.0
121.85425026520916,101.32629183770737,73.02664391248867,24733.333333333336
121.824323496062,101.21274248414083,73.14161380282553,24766.666666666664
122.06159755646057,101.48221337776131,73.05169381710478,24800.0
121.91092046799808,101.4416616699722,73.00448933782269,24833.33333333333
121.91030549021416,101.44636625001922,73.02021739464662,24866.66666666667
122.0833950388745,101.56647229421202,73.00330124645194,24900.0
122.05911473948004,101.50345156281229,73.1859846563043,24933.33333333333
121.75602954245964,101.48358922497013,72.94597162207717,24966.666666666664
122.54529186720968,101.80383808466,73.53706960385044,25000.0
122.42351598173515,101.88933111193386,73.37467604590894,25033.333333333336
122.3639547081328,101.87931938788105,73.35901826484019,25066.66666666667
122.16787356056764,101.79731869686209,73.24608336023861,25100.0
122.16643499212307,101.84621443795756,73.09864702066538,25133.33333333333
122.29743922404474,101.8190004015692,73.26137522009083,25166.66666666667
122.17511506502329,101.8910357396596,73.11574460198314,25200.0
122.46355070666998,102.00644681378628,73.33038370939748,25233.333333333336
122.28188613968432,101.90606369505451,73.27697463935995,25266.666666666664
122.16075124332006,101.97533438359129,73.13934451549132,25300.0
122.1980199549007,101.91730763290396,73.13804713804714,25333.33333333333
121.79234470288988,101.77153626919187,73.0462443688517,25366.66666666667
122.07544239964331,101.6858693479698,73.20226619313378,25400.0
121.92978491152009,101.72092308165371,73.00967052565227,25433.33333333333
121.92632566148548,101.7112833048906,72.98164291314977,25466.666666666664
121.93588756849951,101.4331168031525,72.99829136136937,25500.0
121.80897112246781,101.3559048088172,72.87999507419494,25533.333333333336
121.83803337232928,101.33078320300473,72.87172895757651,25566.66666666667
121.7370081891509,101.34991687703959,72.75935902961639,25600.0
121.87352995505199,101.28314143217779,72.963518256265,25633.33333333333
121.87805553845206,101.27159657656547,72.99967674404284,25666.66666666667
121.77607598054306,101.30984853149435,72.84343636475586,25700.0
121.68459083796141,101.1959436654291,72.94658034426682,25733.333333333336
121.7891139708146,101.3240102210455,72.83961886583337,25766.666666666664
121.81968474847606,101.33727910842929,72.87343759620713,25800.0
121.70796175416015,101.39344488369954,72.85633293493916,25833.33333333333
121.72023535901444,101.3841439122307,72.85264012748613,25866.66666666667
121.8771720143422,101.35150623640095,73.05936073059361,25900.0
121.80043516901108,101.41595415402529,72.93083264380499,25933.33333333333
122.02198829334068,101.44781036437745,73.23719775673439,25966.666666666664
121.95810463846992,101.6290607751795,72.9932813677106,26000.0
122.01085435788632,101.63891579416693,72.99674061774519,26033.333333333336
121.84274156476972,101.55632680579815,72.99134258833624,26066.66666666667
121.96133243026907,101.69987993350162,72.9252509081953,26100.0
121.4851824972028,101.44774562278872,73.01968611085911,26133.33333333333
121.53031751088457,101.59615588828714,72.89572050546883,26166.66666666667
121.9167392067928,101.81342679555902,72.99583085169743,26200.0
122.19696200974741,102.04055778485001,72.9956797810679,26233.333333333336
122.19517857417401,102.05002844272249,72.97884476423289,26266.666666666664
122.46954252000124,101.93842090631081,73.13532882340222,26300.0
122.45322960575257,102.04680138854452,73.04178031242252,26333.33333333333
122.50044941730722,101.85211071162908,73.18440057029507,26366.66666666667
122.3176450533102,101.78393875526905,72.96654165633522,26400.0
122.18039724461744,101.40776264170759,73.1384178173169,26433.33333333333
122.19557964970812,101.37131251351437,73.1481790380873,26466.666666666664
121.8528712198437,101.2572668581843,72.77156890000927,26500.0
122.00976320357054,101.37062980411604,72.75729915695513,26533.333333333336
121.94813104388793,101.3544662782048,72.66355690552939,26566.66666666667
121.99220493429209,101.37067629556162,72.71011033969751,26600.0
121.97746714604513,101.36861517480783,72.67017418794944,26633.33333333333
121.96641767914707,101.38425179766924,72.65945016117034,26666.66666666667
122.0783225886437,101.3211009174312,72.85172328291594,26700.0
121.94173072154724,101.41994173072158,72.6558393255641,26733.333333333336
122.01365298785022,101.43250991817509,72.7136901810067,26766.666666666664
121.9926388544508,101.45377200595092,72.65771448053559,26800.0
122.02995598809821,101.47642883709398,72.74628068435408,26833.33333333333
122.0346051326556,101.48876456731962,72.76548165137615,26866.66666666667
122.10865300784657,101.52632644164902,72.65707124174865,26900.0
122.42896064267029,101.51356021920536,73.02431809689874,26933.33333333333
122.1438846680782,101.63908955037986,72.78052995391704,26966.666666666664
122.11622861393505,101.67685345896356,72.89767232829159,27000.0
121.98257536967216,101.61384971062391,72.7747366134463,27033.333333333336
121.97646200872008,101.62551785132428,72.77334016043693,27066.66666666667
122.24769585253456,101.8066695727986,72.83660792128535,27100.0
122.21176360692488,101.83867854029144,72.8069498069498,27133.33333333333
122.14536325316143,101.90819489213983,72.90078725514506,27166.66666666667
121.93065208661541,101.86681802736851,72.82591974793809,27200.0
122.26111145549221,101.89472787007193,72.99925613687083,27233.333333333336
122.27795685593851,101.90106620381849,73.01644247458468,27266.666666666664
122.1591092239028,101.93043330027277,72.85310252913466,27300.0
122.17460637242748,101.85476072402679,72.826943342425,27333.33333333333
122.06964418546987,101.82344098685844,72.7486052566328,27366.66666666667
122.28541098437887,101.61650756260849,73.0449727250186,27400.0
121.7690912165798,101.44386021554972,72.81223190812231,27433.33333333333
121.74798210414649,101.44442906999984,72.78491152007132,27466.666666666664
120.94839577852369,100.95405062142791,72.56536333121655,27500.0
121.15859104441341,101.05425603013548,72.57433622941856,27533.333333333336
121.25726046539889,100.99176742207909,72.6780940518865,27566.66666666667
120.77615021776151,100.78832677788328,72.41746914417469,27600.0
121.85785973770086,101.13803029370114,72.70562157502616,27633.33333333333
121.8805338341235,101.1424173388338,72.71010097900377,27666.66666666667
121.87064837982271,101.24816977110555,72.62925895035988,27700.0
122.02895532518819,101.30337529310131,72.77563865235099,27733.333333333336
121.95119947929578,101.35060748822217,72.59350979419787,27766.666666666664
121.92734172528694,101.4048346291497,72.6922281870912,27800.0
121.85995927434284,101.46573799827223,72.62466061952364,27833.33333333333
121.86509626064421,101.46964087375046,72.63004442798963,27866.66666666667
122.21433419721092,101.47909724793287,73.0662100456621,27900.0
122.04066451772871,101.5353025043392,72.70563166377387,27933.33333333333
122.0483890896735,101.43096098600687,72.86908843789578,27966.666666666664
122.11066513761469,101.58509484254898,72.77550830647161,28000.0
122.02903654279802,101.49266363945264,72.86150495783524,28033.333333333336
122.01819417415749,101.51166095202794,72.87923578290551,28066.66666666667
121.88769962623176,101.54794118555587,72.6776325950638,28100.0
121.87009728464994,101.48904008373869,72.786312419186,28133.33333333333
121.94608161121923,101.64240261946684,72.66391746208261,28166.66666666667
122.1549748246996,101.6431903129151,72.92152410959751,28200.0
121.7128717443507,101.52399790653284,72.6639215565544,28233.333333333336
121.69955667754448,101.53555815528601,72.63706052582968,28266.666666666664
121.95332530194916,101.45468445927162,72.74691872857011,28300.0
121.61857336370913,101.35002462902528,72.54560987623914,28333.33333333333
121.77370543685731,101.13489009297457,72.72289267902222,28366.66666666667
121.68666790226423,101.13237883421371,72.41713773823867,28400.0
121.70949556729374,101.08820622123376,72.41678250393848,28433.33333333333
121.69043647484017,101.09725697340376,72.41486732771138,28466.666666666664
121.63783090847313,101.0921292435054,72.35029190992496,28500.0
121.77870447595221,101.01649522750441,72.58431408890125,28533.333333333336
121.65034133382757,101.05682204306059,72.41179377876627,28566.66666666667
121.78259660828468,101.02136039292006,72.61284094770335,28600.0
121.65052667346248,101.05377938405462,72.40550767614987,28633.33333333333
121.62793068297657,101.0663979241961,72.38320514008588,28666.66666666667
121.76251814783926,101.00762981496928,72.54962468723937,28700.0
121.60530380255152,101.01615543817378,72.37118895375777,28733.333333333336
121.93379618150259,101.07925241755518,72.64285271510045,28766.666666666664
121.87628626332756,101.18185903793704,72.42448239523928,28800.0
121.86627978572749,101.08621698171294,72.74438150360199,28833.33333333333
121.87763992365,101.08403115571699,72.78501939535742,28866.66666666667
121.54560987623914,101.12075918970504,72.37023582291731,28900.0
121.97301742463034,101.26003506648672,72.6759763533957,28933.33333333333
122.04508656121556,101.40425333167269,72.5547390708681,28966.666666666664
122.03984545920031,101.32161864419928,72.64899377802605,29000.0
121.86047014487384,101.37894232848362,72.57310104099095,29033.333333333336
121.84093225836348,101.39937602322924,72.53751583109381,29066.66666666667
122.1390712035873,101.46295520489069,72.71580629645145,29100.0
121.97852565594502,101.54306505919406,72.4746233455911,29133.33333333333
121.9550613923855,101.3376890483407,72.65167166671822,29166.66666666667
121.49350311053905,101.25052863841131,72.40289908369344,29200.0
121.65648491914946,101.04751311711823,72.67670522536896,29233.333333333336
121.65384615384615,101.04438341873524,72.68732165321714,29266.666666666664
121.47620220429779,101.03614309463705,72.29208484699217,29300.0
121.68345545225048,100.89073948648482,72.73049689058554,29333.33333333333
121.26017486607971,100.71725878948341,72.22007573425282,29366.66666666667
121.6521329502981,100.79308374262504,72.46671609056929,29400.0
121.33543193153128,100.7165045255834,72.25635736715721,29433.33333333333
121.31183424665969,100.72067606674463,72.25309402130411,29466.666666666664
121.62813146758104,100.80746300929786,72.51606276835635,29500.0
121.58093164056469,100.88655669848332,72.32937942112255,29533.333333333336
121.59395973154362,100.77248937873286,72.5389292531248,29566.66666666667
121.48269810972229,100.80539991379841,72.33918785789052,29600.0
121.659842374238,100.80346037805552,72.53882150113908,29633.33333333333
121.65410073271349,100.80757034665352,72.54696447263099,29666.66666666667
121.46902900067728,100.86925066190504,72.27459823902468,29700.0
121.4310545856218,100.76518057132336,72.45168911662729,29733.333333333336
121.32354024117089,100.89480224601887,72.2475376637722,29766.666666666664
121.83076780986393,101.00383289206327,72.72452435194877,29800.0
121.57819251631884,101.23989457877478,72.4842021390702,29833.33333333333
121.55028960191228,101.2495326529987,72.4689865465355,29866.66666666667
121.40270962235971,101.08482428601907,72.6697247706422,29900.0
121.76477741518379,101.44678591219751,72.57795086509452,29933.33333333333
122.07171094971041,101.54635162881922,73.09464925990622,29966.666666666664
122.26366848499876,101.76591557153485,72.76868956112075,30000.0
122.599489203622,101.81749090627659,73.05810695766581,30033.333333333336
122.6072595000387,101.82767587648014,73.07011841188762,30066.66666666667
122.54230733389244,101.96572236200417,72.80186686546764,30100.0
122.46845916795068,101.78889060092449,73.09081664098613,30133.33333333333
122.54184139409188,101.92850930326469,72.83219954648526,30166.66666666667
122.71851023514427,101.8329450501662,72.99066567266176,30200.0
122.53008417979065,101.85854067654459,72.7980772217563,30233.333333333336
122.61993696561194,101.85310179117519,72.71556512513263,30266.666666666664
123.07158459714162,101.77341945952692,73.27151594582787,30300.0
122.30230287627077,101.574758244483,72.77457847756013,30333.33333333333
122.76053490903436,101.73708598973721,73.10139947131084,30366.66666666667
122.51461961148516,101.75300673322498,72.92070273198668,30400.0
122.68460581558078,101.64893484683563,73.05686518426373,30433.33333333333
122.68847768620743,101.65134504742649,73.06474887264811,30466.666666666664
122.6001399471311,101.7823511118022,72.88116933602862,30500.0
122.67541211980496,101.7553904496556,73.12475814565434,30533.333333333336
122.44258306471608,101.7610494668981,72.82877200595091,30566.66666666667
122.4270251987147,101.70130529034635,73.07252125516966,30600.0
122.47773059757006,101.89595214480535,72.85987478303994,30633.33333333333
122.4578477560129,101.90356124473101,72.83724894619391,30666.66666666667
122.61827757699318,101.75584592098356,73.14118246687055,30700.0
122.18108020847748,101.83049674830495,72.85240533185737,30733.333333333336
122.88732700979631,102.02329342248484,73.11939045249572,30766.666666666664
122.4587930820729,102.04565459955369,72.70048661046368,30800.0
122.62752603520953,102.0070357054302,72.99736548475082,30833.33333333333
122.65404165633524,102.00488160178527,73.02095214480535,30866.66666666667
122.74797166573052,102.28526181114648,72.81957186544344,30900.0
122.71765343239687,102.09191239068184,73.1328689729897,30933.33333333333
122.06197438617531,101.92517257814062,72.6485401964854,30966.666666666664
122.43698117891668,101.79780912038977,72.81290632903537,31000.0
122.07722583521671,101.79688821241336,72.67031041003644,31033.333333333336
122.09109358424429,101.77862337223068,72.67513798564028,31066.66666666667
122.20721676429442,101.62131205510201,72.84943806404993,31100.0
122.10133444537115,101.69510085565132,72.5026719797362,31133.33333333333
122.3667562474902,101.5803910666296,72.83285453927657,31166.66666666667
122.28762707661792,101.72177969253656,72.54697185717828,31200.0
122.45048342754768,101.65954653569334,73.0048188305069,31233.333333333336
122.46144935594478,101.64762301918266,73.05482964198559,31266.666666666664
121.99508017772858,101.62034346509232,72.58115400581154,31300.0
122.26783819934505,101.69175776025094,72.88911950555786,31333.33333333333
122.00625739895143,101.70996110265516,72.68136463570254,31366.66666666667
122.30361721187408,101.808327927594,72.94484601365336,31400.0
122.1603805640503,101.88196954252001,72.7135884842307,31433.33333333333
122.32252665509549,101.97872241507565,72.68753099429705,31466.666666666664
122.48896603025044,101.98924497892388,72.91904289610711,31500.0
122.36830523183737,102.07246466650138,72.79739028018845,31533.333333333336
122.25185185185184,102.03177226813592,73.07381389654118,31566.66666666667
122.21076826099657,102.13361929800286,72.88615223775041,31600.0
122.44670448780035,102.12582445459158,73.13117476131175,31633.33333333333
122.45465307565763,102.12098150454315,73.13103639131036,31666.66666666667
122.45001851166236,102.28753239540913,72.89533197581143,31700.0
122.47742262810756,102.09619789985086,73.17004135725597,31733.333333333336
122.1987146964316,102.06586412065865,72.79163015236075,31766.666666666664
122.30106237412174,102.000153744446,72.97902925756806,31800.0
122.1731469950648,102.05401042387345,72.76978306658673,31833.33333333333
122.14739480036283,102.05565548944544,72.72644250726442,31866.66666666667
122.25702996479252,101.97086542748644,72.88764355887643,31900.0
122.16858078501915,102.0314868625371,72.74856633304124,31933.33333333333
122.39589194840336,102.0209861168765,72.95787402180096,31966.666666666664
122.16536577900213,102.0547138047138,72.80615243342517,32000.0
122.17679507217063,101.92807453035455,72.9433054457418,32033.33333333333
122.1335417937767,101.93808724832216,72.99421903599756,32066.66666666667
122.0,101.9853264185479,72.78676021964613,32100.0
122.18131531365879,101.96222916858204,72.88038981336766,32133.33333333333
122.09343875455856,102.02247862462076,72.74662131102326,32166.666666666664
122.188573784762,101.95745330706616,72.99919060490829,32200.000000000004
121.90362089766498,102.02225072921915,72.70089033460089,32233.333333333336
121.89752752706892,102.01817321054963,72.68874940822529,32266.666666666664
122.00088575311923,102.01481345733878,72.90429284830715,32300.0
121.75427701674276,101.98514459665144,72.70164383561644,32333.333333333336
122.06120859485958,102.05749759472214,72.84271773491547,32366.66666666667
122.0507502071124,102.14250866803718,72.6847442545488,32400.0
122.13826911623221,102.12767062201249,72.89926849009636,32433.33333333333
121.9790106544901,102.04744292237444,72.89678843226788,32466.66666666667
121.9633481467907,102.220002748889,72.71006856950872,32500.0
122.27099505998586,102.15406093706852,72.96512840968366,32533.33333333333
122.16324425835846,102.14407979804199,72.69195246598116,32566.66666666667
121.99665137614679,101.85515290519878,72.93749235474007,32600.0
121.69091743119269,101.7562996941896,72.56495412844038,32633.33333333333
121.80313583504648,101.85147740173667,72.54702218403854,32666.666666666664
121.86420489296637,101.58490825688074,72.8111009174312,32700.000000000004
121.76827958638887,101.61497039059864,72.50790095425117,32733.333333333336
121.89627504525794,101.58829124604952,72.7270872326716,32766.666666666664
121.78153477954037,101.61776257248934,72.4744407965389,32800.0
121.77455657492355,101.4487767584098,72.65825688073394,32833.333333333336
121.97807676966032,101.54829554171397,72.74146236691111,32866.666666666664
121.81307722991009,101.55593568776658,72.48703629836456,32900.0
121.87654567211807,101.48984382191402,72.63319628118192,32933.33333333333
121.75773986683441,101.53901383817622,72.43516615016415,32966.66666666667
121.83507645259941,101.49753822629972,72.75666666666667,33000.0
121.63348623853213,101.58348623853212,72.56957186544344,33033.33333333333
121.63856269113151,101.589250764526,72.54149847094801,33066.66666666667
121.85073394495414,101.60903669724772,72.80868501529052,33100.0
121.72479452054796,101.80016742770168,72.76887366818873,33133.333333333336
121.62278871450606,101.69518279960084,72.89919562127672,33166.666666666664
121.717274230495,101.87398170481957,72.83211213762345,33200.0
121.84490055977793,101.91553269922176,73.0599371956492,33233.333333333336
121.86390873647964,101.91758066718245,73.09558700829807,33266.666666666664
121.91039573820395,102.06461187214613,72.89519025875191,33300.0
122.18325722983255,102.12199391171991,73.20325722983256,33333.333333333336
122.06395738203956,102.15923896499235,73.10214611872145,33366.666666666664
122.07860606060606,102.15177272727271,73.2935303030303,33400.0
122.05896499238965,102.19025875190258,73.06608828006087,33433.33333333333
122.05302891933027,102.17549467275494,73.05611872146119,33466.66666666667
122.19707762557077,102.07039573820394,73.21158295281583,33500.0
121.83393255358853,101.92164626283771,72.96891639739681,33533.33333333333
121.96240841032177,101.78358288202186,73.12950742578012,33566.66666666667
121.92105022831049,101.81468797564688,72.9294216133942,33600.0
122.20660578386604,101.70436834094367,73.31569254185692,33633.333333333336
122.2317503805175,101.69788432267885,73.32515981735159,33666.666666666664
121.72734719883492,101.571580272759,72.97518166234319,33700.0
121.79250292025058,101.52890668851164,73.10729835100652,33733.333333333336
121.6809265917262,101.6022997921692,72.85841714831841,33766.666666666664
122.02727549467275,101.63846270928462,73.11354642313545,33800.0
121.92768645357685,101.69922374429224,72.9548706240487,33833.333333333336
121.93144596651446,101.69199391171992,72.96012176560122,33866.666666666664
122.0538203957382,101.66614916286149,73.1061796042618,33900.0
121.93185692541857,101.7210197869102,72.92861491628615,33933.33333333333
122.1181498470948,101.67359327217129,73.00204892966363,33966.66666666667
122.02195718654436,101.73990825688074,72.82851681957187,34000.0
122.16337920489298,101.70860856269114,73.08648318042815,34033.33333333333
122.17070336391436,101.71642201834864,73.10908256880734,34066.66666666667
121.9989497716895,101.79928462709285,73.01336377473363,34100.0
122.26765601217657,101.8396803652968,73.3038203957382,34133.333333333336
122.1117737003058,101.9258868501529,72.98874617737003,34166.666666666664
122.17455657492356,101.92807339449541,73.16778287461774,34200.0
122.08486238532112,102.00762996941894,73.0176758409786,34233.333333333336
122.09969418960243,102.009250764526,73.01209480122323,34266.666666666664
122.05187600963151,101.90260294431408,73.19354445426559,34300.0
121.92366423847116,101.93931543174128,73.04602395684111,34333.333333333336
121.98966746929196,101.80010058215734,73.11641622725472,34366.666666666664
121.75615528148182,101.8146058040929,72.97521200260927,34400.0
121.865850513509,101.65348382105313,73.13493833340918,34433.33333333333
121.8598583109574,101.64163594714728,73.154705016763,34466.66666666667
121.778978329117,101.57900271267029,72.84743515498795,34500.0
121.8454844707245,101.43132981803774,73.00211832119236,34533.33333333333
121.73205522874821,101.47258374226584,72.82675485385109,34566.66666666667
121.95169008503763,101.3501021061294,73.12437136151668,34600.0
121.71215215337256,101.27756103508185,72.83567009052395,34633.333333333336
121.70715352494743,101.25558535767624,72.82689201133836,34666.666666666664
121.81021975677406,101.25233929714408,72.98652808680545,34700.0
121.71904050717792,101.30889390106371,72.83893139077692,34733.333333333336
121.83772745283306,101.27746959675699,73.00275838946631,34766.666666666664
121.74535950501387,101.34850193544456,72.83591392605688,34800.0
122.0501529051988,101.46880733944955,73.09464831804281,34833.333333333336
121.8945411320065,101.35339388582402,73.07127617422049,34866.666666666664
121.77579322746807,101.40237434850194,72.90590996372947,34900.0
121.88533634063823,101.41185345484472,73.02726386052608,34933.33333333333
121.9893883792049,101.58764525993885,72.98629969418961,34966.66666666667
121.98227620469991,101.55131213996158,73.12185680758328,35000.0
121.9259654363132,101.61609619311771,72.94615806638423,35033.33333333333
121.90133804748696,101.62594105275991,72.94118991740072,35066.66666666667
122.21958913712702,101.63386570758024,73.32768447682041,35100.0
121.877394984754,101.73258089473444,73.13914046026184,35133.333333333336
122.00646247667594,101.71466496761177,73.38865880853777,35166.666666666664
121.89688860571309,101.77014214414659,73.43344104127793,35200.0
122.00796431984706,101.72842427828093,73.95025713375506,35233.333333333336
122.01635340341934,101.73025986437901,73.97871630334198,35266.666666666664
121.91142159316738,101.79345863863226,73.8500887452783,35300.0
121.99205085028595,101.71340584656929,74.13229873025986,35333.333333333336
121.83014002032795,101.70836936239931,73.92193449536552,35366.666666666664
121.78547914865213,101.41848329009844,74.02527344164808,35400.0
121.37359486642698,101.23641135332755,73.62085286487962,35433.33333333333
121.33720171725906,101.21737283635977,73.59571595442894,35466.66666666667
121.19724206981294,100.86947617530605,73.64324398124971,35500.0
121.22443425076452,100.85998470948013,73.34154434250766,35533.33333333333
121.05765186381784,100.50833612728216,73.49224298210856,35566.66666666667
120.8137858514432,100.45517998110277,73.17162973574324,35600.0
120.86427504648115,100.41738547349811,73.25851138407144,35633.333333333336
120.76333075441073,100.41854397063062,73.35124926045602,35666.666666666664
120.75765795970621,100.45056234569785,73.16195251302996,35700.0
120.91153342070774,100.38169404736506,73.28234630741565,35733.333333333336
120.51959539145425,100.38740209864224,73.15136532704345,35766.666666666664
120.84693335760556,100.44717001168101,73.35293314522369,35800.0
120.74832749283213,100.47908797160153,73.20824041626845,35833.333333333336
120.74970797493894,100.48611174319998,73.19929003777364,35866.666666666664
120.7363694094167,100.4262602437328,73.36321025734071,35900.0
120.8264688481318,100.60243632336656,73.29308697037274,35933.33333333333
120.94902835297864,100.61721203294952,73.40751528390905,35966.66666666667
120.88681563737316,100.68079006052885,73.26867822630805,36000.0
120.97797030451478,100.60626266291693,73.58287217635852,36033.33333333333
120.995947866582,100.6232120717288,73.63111977985425,36066.66666666667
120.90722057971901,100.82748636044987,73.25113535920022,36100.0
120.96151337247228,100.85061969993477,73.45123560733626,36133.333333333336
120.95402176232132,100.87514096741751,73.23996464384773,36166.66666666666
121.154317412905,100.86442744368924,73.44967844189095,36200.0
121.00827516839891,100.98977414733764,73.23136944131184,36233.333333333336
121.00266695114144,100.99131335913928,73.27208997531166,36266.66666666666
121.12492604560144,101.04449400021238,73.5579119828881,36300.0
121.03484579559765,101.13232907052596,73.45980673250504,36333.333333333336
121.14510232254736,101.1704971252598,73.57904397821571,36366.66666666666
121.02968795036331,101.1867595078809,73.45328357529695,36400.0
120.8418458374913,101.05459796183737,73.42815023133448,36433.33333333333
120.85244488796152,101.05682058725695,73.4335782757265,36466.66666666667
120.9279115277841,101.10358166841124,73.32706806838695,36500.0
121.16066687904852,100.89321743351692,73.6019508791092,36533.33333333333
120.87860859539738,100.80503345014336,73.34307255874634,36566.66666666667
120.97574295726574,100.72689209484369,73.48392724404194,36600.0
120.87352660082828,100.75407697325504,73.33867322016414,36633.333333333336
120.84477919871357,100.750451311458,73.31807217949302,36666.66666666666
120.8643335002048,100.70623037364037,73.3066338991793,36700.0
120.81459063395987,100.72281132905536,73.22289476478709,36733.333333333336
120.98402584990671,100.65650267752848,73.39642591665529,36766.66666666666
120.87404238535171,100.65955187426994,73.26796523005507,36800.0
120.98008161531577,100.66219147741926,73.38471457394681,36833.333333333336
121.01054324246424,100.65965806520123,73.38544274033283,36866.66666666666
120.88757414402524,100.709340250914,73.30868186713998,36900.0
121.05072892489271,100.69087819900179,73.43221226050153,36933.33333333333
120.92633383394771,100.78071572687692,73.28289264096847,36966.66666666667
121.11098469333577,100.830868186714,73.4597157117068,37000.0
120.93061181146558,100.8877713557548,73.30114231101807,37033.33333333333
120.93702877774237,100.88537447473415,73.29562038259076,37066.66666666667
120.96877986619944,100.93622476069115,73.36062440267602,37100.0
121.01792191167057,100.95594196714315,73.27582370690969,37133.333333333336
121.03349565375687,100.96330344817123,73.55393740803108,37166.66666666666
120.95342769156086,101.03812254433471,73.38476008434594,37200.0
121.0871979247258,101.04382651435851,73.59031538706593,37233.333333333336
121.094115505393,101.04728530469211,73.60167781671444,37266.66666666666
120.95013577269071,101.14558776680471,73.44069236487205,37300.0
121.02051001987287,101.19900180524584,73.48410928563844,37333.333333333336
120.95209271985316,101.25073195891927,73.42561325262822,37366.66666666666
121.09329631820871,101.13146437294256,73.55137365554697,37400.0
121.00758506652106,101.13877637706881,73.38805200321606,37433.33333333333
121.08480904629828,101.13412478283398,73.35310433112865,37466.66666666667
121.16620397760887,100.9317040610446,73.72200731200412,37500.0
120.94428358072479,100.78868603127192,73.29997866439088,37533.33333333333
120.93715139138651,100.72410009448627,73.28365692340516,37566.66666666667
120.86835929165777,100.69474839220943,73.21742509677223,37600.0
120.95455028140594,100.64444242176005,73.48109042916306,37633.333333333336
121.19625382262998,100.72732415902142,73.48793577981651,37666.66666666666
121.23201190512718,100.88065723666044,73.39236292227916,37700.0
121.10716894977169,100.79415525114156,73.48147640791477,37733.333333333336
121.24124758368878,100.9001411432604,73.37755822159492,37766.66666666666
121.3187689853027,100.9142401276426,73.38967813199963,37800.0
121.08799694189604,100.83087155963304,73.29816513761469,37833.333333333336
121.09003058103977,100.8291743119266,73.2806880733945,37866.66666666666
121.41038937129879,100.907367064527,73.4646835015802,37900.0
121.30513025068272,100.97786198643793,73.32755975576079,37933.33333333333
121.70972365642773,101.0030978838833,73.65900158747284,37966.66666666667
121.41871989199473,101.09393697646593,73.4712957564972,38000.0
121.3571723095249,101.11963775751744,73.5394541928193,38033.33333333333
121.3504833463142,101.13600891861765,73.5241520441044,38066.66666666667
121.33192834562698,101.16482643820343,73.49374627754617,38100.0
121.23916286149162,101.07914764079149,73.65789954337899,38133.333333333336
121.17713850837141,101.12544901065449,73.50216133942159,38166.66666666666
121.40306348406408,101.31086880163711,73.54609734121348,38200.0
121.03789499233908,101.15452297516649,73.47277719625602,38233.333333333336
121.12871468194705,101.15401261848885,73.41243256423544,38266.66666666666
121.24557286110519,101.17435764576791,73.58893901063733,38300.0
121.0730593607306,101.22774920736056,73.51159756671065,38333.333333333336
121.12947708551405,101.1581638070966,73.60698736327917,38366.66666666666
121.199299847793,101.2583105022831,73.48007610350076,38400.0
121.41840978593271,101.07366972477064,73.63128440366972,38433.33333333333
121.4274770642202,101.07463302752295,73.6660244648318,38466.66666666667
121.17073394495415,100.94912844036699,73.44707951070338,38500.0
121.16536697247707,100.89203363914372,73.47203363914373,38533.33333333333
121.12504587155964,100.85929663608565,73.38660550458718,38566.66666666667
121.31740061162078,100.73180428134556,73.49957186544344,38600.0
121.18538226299695,100.77996941896023,73.34477064220184,38633.333333333336
121.14981651376148,100.78813455657492,73.32804281345567,38666.66666666666
121.21640672782877,100.72501529051986,73.48741590214068,38700.0
121.0468797564688,100.75634703196349,73.47056316590563,38733.333333333336
121.17446483180427,100.73715596330277,73.42113149847096,38766.66666666666
120.94716388795756,100.6407845408272,73.34325947148648,38800.0
121.19269406392695,100.68316590563164,73.61321156773211,38833.333333333336
121.19948249619482,100.68837138508371,73.62741248097412,38866.66666666666
121.13030441400305,100.74223744292236,73.50308980213092,38900.0
121.293698630137,100.78149162861492,73.66410958904109,38933.33333333333
121.18044342507645,100.8172018348624,73.43137614678899,38966.66666666667
121.2670642201835,100.81862385321102,73.60579510703364,39000.0
121.10129375951293,100.87200913242008,73.50806697108068,39033.33333333333
121.11009132420092,100.8775799086758,73.47616438356164,39066.66666666667
121.1496803652968,100.91101978691022,73.54788432267884,39100.0
121.11552511415523,100.97190258751905,73.48327245053272,39133.333333333336
121.29161339421611,100.96053272450531,73.68208523592084,39166.66666666666
121.18237442922373,101.05911719939115,73.50567732115677,39200.0
121.29021406727828,101.12792048929664,73.48680428134556,39233.333333333336
121.2835779816514,101.14553516819572,73.47454128440367,39266.66666666666
121.20745814307458,101.1615220700152,73.56464231354641,39300.0
121.28651445966514,101.13089802130898,73.68232876712328,39333.333333333336
121.18698630136986,101.13806697108066,73.56497716894977,39366.66666666666
121.31,100.97925418569254,73.75517503805175,39400.0
121.06648401826484,100.800700152207,73.5161796042618,39433.33333333333
121.08652968036527,100.78120243531204,73.54252663622526,39466.66666666667
121.12911719939116,100.69356164383561,73.71347031963471,39500.0
121.01302891933027,100.6903196347032,73.49835616438355,39533.33333333333
121.12718417047184,100.57785388127851,73.62027397260273,39566.66666666667
121.0872171253823,100.61848623853213,73.39599388379207,39600.0
121.19203363914372,100.55551987767583,73.50018348623854,39633.333333333336
121.12764079147641,100.54864535768644,73.57228310502283,39666.66666666666
121.00155251141553,100.5551598173516,73.37823439878234,39700.0
120.94412840000606,100.39072194663149,73.51992596975077,39733.333333333336
120.92325276600931,100.38940534609408,73.33321649547379,39766.66666666666
120.97968545216251,100.35595415891979,73.40815020268829,39800.0
121.03473363774737,100.54724505327243,73.33088280060882,39833.333333333336
121.02919330289193,100.54,73.3232420091324,39866.66666666666
121.35365443425077,100.52044342507645,73.52683486238533,39900.0
121.13750764525992,100.55432721712539,73.29498470948012,39933.33333333333
121.19455657492355,100.54929663608564,73.35275229357799,39966.66666666667
121.13764525993885,100.58724770642202,73.24400611620796,40000.0
121.2941896024465,100.63422018348624,73.4695259938838,40033.33333333333
121.03586219451144,100.53882795552117,73.4879928396972,40066.66666666667
121.24267584097858,100.71105504587156,73.37180428134558,40100.0
121.37094801223242,100.70996941896028,73.50018348623854,40133.333333333336
121.05810905544209,100.67661312444756,73.2712517906672,40166.66666666666
121.13340614997192,100.72848495881307,73.48696127065034,40200.0
121.15660578386606,100.90397260273971,73.36036529680365,40233.333333333336
121.15438356164385,100.90293759512936,73.38410958904109,40266.66666666666
121.25488584474886,100.86161339421614,73.58803652968038,40300.0
121.12762557077623,100.88875190258752,73.4482800608828,40333.333333333336
121.42322629969419,100.6812385321101,73.66847094801224,40366.66666666666
121.12116207951073,100.57581039755352,73.36331804281345,40400.0
121.10388379204893,100.53229357798166,73.382125382263,40433.33333333333
121.10964831804282,100.53692660550459,73.35591743119268,40466.66666666667
121.08368501529051,100.49448012232416,73.29241590214069,40500.0
121.09898021308979,100.38853881278538,73.44966514459665,40533.33333333333
121.09001529051987,100.44741590214069,73.26998470948013,40566.66666666667
121.23605504587157,100.3382874617737,73.44906727828747,40600.0
121.19489622944059,100.49597593194972,73.38368381667966,40633.333333333336
121.03158295281582,100.40461187214613,73.33243531202434,40666.66666666666
121.39405050474058,100.38670185020405,73.4776011782394,40700.0
121.21080924237566,100.49125700584902,73.39106000213802,40733.333333333336
121.16452054794519,100.36692541856924,73.52144596651445,40766.66666666666
121.08931506849315,100.42675799086756,73.38371385083714,40800.0
121.34165905631659,100.43453576864536,73.72593607305936,40833.333333333336
121.37009132420091,100.43672754946726,73.74669710806697,40866.66666666666
121.11441896024463,100.47142201834863,73.36244648318043,40900.0
121.15455657492355,100.54030581039757,73.41551987767585,40933.33333333333
121.24313923122736,100.6667735679052,73.43704280631023,40966.66666666667
121.23722983257228,100.58149162861493,73.6314307458143,41000.0
121.14284627092846,100.676301369863,73.50774733637745,41033.33333333333
121.29376460347277,100.77555321390938,73.50362700630717,41066.66666666667
121.40532110091743,100.72171253822631,73.64362385321101,41100.0
121.29695718654436,100.77175840978596,73.47392966360856,41133.333333333336
121.578994200853,100.78268540394586,73.65702187720537,41166.66666666666
121.38205332760576,100.77007456046148,73.45839342149674,41200.0
121.23258751902588,100.5418417047184,73.55791476407914,41233.333333333336
121.2417199391172,100.52747336377472,73.57289193302891,41266.66666666666
121.04060882800607,100.55108066971079,73.41882800608829,41300.0
121.28147640791477,100.32835616438356,73.60710806697108,41333.333333333336
121.08138508371384,100.23179604261793,73.34098934550991,41366.66666666666
121.08885844748858,100.23805175038048,73.3893302891933,41400.0
121.04468797564688,100.24465753424656,73.35118721461187,41433.33333333333
121.04404870624049,100.23841704718416,73.33535768645358,41466.66666666667
121.25377473363771,100.12257229832571,73.44823439878233,41500.0
121.31680365296805,100.07710806697108,73.33815829528156,41533.33333333333
121.67065449010654,99.8985692541857,73.41368340943683,41566.66666666667
121.52095890410958,99.94318112633181,73.23709284627094,41600.0
121.6999391171994,99.82718417047184,73.38065449010655,41633.333333333336
121.75745814307457,99.74741248097412,73.39684931506851,41666.66666666666
121.60024353120244,99.77056316590564,73.24412480974125,41700.0
121.38371385083714,99.54474885844748,73.07943683409437,41733.333333333336
121.11604261796042,99.47753424657532,72.80083713850837,41766.66666666666
120.98005127504969,99.36027548961607,72.86245240370758,41800.0
120.68247394529652,99.27137850998949,72.55245073499296,41833.333333333336
120.63697871630336,99.28025303781915,72.49172469242555,41866.66666666666
120.7864348670338,99.30038380436596,72.74685598992703,41900.0
120.46992651728205,99.29182920560041,72.54135292872479,41933.33333333333
120.5306026792464,99.38519459312349,72.60626266291693,41966.66666666667
120.8934703196347,99.63423135464231,72.60818873668187,42000.0
121.06168949771687,99.6947184170472,72.78943683409436,42033.33333333333
121.0834398782344,99.69771689497715,72.84563165905631,42066.66666666667
120.80756686236136,99.675086090505,72.67755882219087,42100.0
120.91054172545094,99.75518439296712,72.74189535642228,42133.333333333336
120.88584474885843,99.80553406453377,72.72143084694855,42166.66666666666
120.95857036666212,99.76366449733764,72.84265538008769,42200.0
121.0490410958904,99.87809741248094,72.75904109589041,42233.333333333336
121.06240487062405,99.87325722983256,72.75607305936073,42266.66666666666
121.35741248097412,99.72094368340944,73.02170471841704,42300.0
120.76919471408267,99.45064864374493,72.69568175632767,42333.333333333336
120.76922495388428,99.39529468686683,72.69982460915057,42366.66666666666
120.89754092143387,99.47867837800938,72.67347805640256,42400.0
121.12162861491629,99.53724505327244,72.74208523592084,42433.33333333333
121.1187519025875,99.52130898021306,72.72718417047184,42466.66666666667
121.06004566210044,99.52622526636223,72.65522070015221,42500.0
120.96620094358231,99.385503420865,72.76983874148577,42533.33333333333
121.05365296803652,99.5417503805175,72.66806697108066,42566.66666666667
121.1099391171994,99.55063926940642,72.72649923896499,42600.0
120.8931112425856,99.45055295134938,72.59601935708977,42633.333333333336
121.06671232876712,99.54674277016744,72.66053272450533,42666.66666666666
121.19485540334856,99.51030441400304,72.8096803652968,42700.0
121.12449010654491,99.5669406392694,72.64404870624048,42733.333333333336
121.2184650859388,99.48819005142677,72.94910420364387,42766.66666666666
121.01444196665605,99.5503724267662,72.68295938955384,42800.0
121.1938949678442,99.56565271724224,72.70288640312108,42833.333333333336
121.19874119906125,99.58354414947121,72.72917492151544,42866.66666666666
121.04449998476028,99.68502545033377,72.5987686305587,42900.0
121.0767624737115,99.74020847938068,72.69112133865707,42933.33333333333
121.21048929663608,99.88223241590215,72.63697247706422,42966.66666666667
121.20401414246092,99.79336462556006,72.75971532201531,43000.0
121.19517503805174,99.9520700152207,72.75004566210045,43033.33333333333
121.29334862385322,99.95752293577982,72.69024464831804,43066.66666666667
121.14479891988651,99.9229660644124,72.8622096815789,43100.0
121.29964831804286,100.04218654434251,72.70114678899083,43133.333333333336
121.42772171253824,100.06946483180428,72.8276758409786,43166.66666666666
121.33392966360857,100.14509174311928,72.67429663608563,43200.0
121.67746177370032,100.22495412844036,73.067874617737,43233.333333333336
121.71837920489295,100.23357798165138,73.10408256880734,43266.66666666666
121.26367764942543,100.26837148343444,72.81281050931149,43300.0
121.35942881526412,100.25188210551985,72.94989179798226,43333.333333333336
121.26553689536408,100.28847267518059,72.82414886159286,43366.66666666666
121.27754579536104,100.20514188180073,72.9074186960895,43400.0
121.34646788990828,100.29538226299697,72.74764525993884,43433.33333333333
121.15568898777776,100.19947270566004,72.7058429089579,43466.66666666667
121.17551586454935,100.11650766557959,72.68897253802311,43500.0
121.15052272242373,100.10907068182512,72.65526227559512,43533.33333333333
121.24955042823616,100.02281386205006,72.80005486299491,43566.66666666667
121.30172782874618,100.15683486238531,72.72788990825687,43600.0
121.4346636085627,100.07058103975537,72.88230886850155,43633.333333333336
121.46455657492355,100.0467737003058,72.8902905198777,43666.66666666666
121.52546715350864,100.19678745665982,72.76929213586574,43700.0
121.59752293577982,100.06746177370032,73.06255351681958,43733.333333333336
121.51877819029795,100.2281611487834,72.80003681998096,43766.66666666666
121.56242520941365,100.2265962995919,72.8196127765334,43800.0
121.55345033905066,100.25953484090701,72.76985977723912,43833.333333333336
121.53033045932926,100.2741401000276,72.73928385136998,43866.66666666666
121.56830106471114,100.3006965113068,72.76757387008684,43900.0
121.35267584097859,100.22056574923548,72.69889908256881,43933.33333333333
121.52288990825687,100.212003058104,72.90357798165137,43966.66666666667
121.41880733944954,100.30214067278288,72.77571865443426,44000.0
121.54154434250765,100.35980122324159,72.95290519877678,44033.33333333333
121.58322629969419,100.36264525993884,72.97178899082569,44066.66666666667
121.50070336391435,100.43749235474009,72.87169724770642,44100.0
121.42066201347193,100.39195037946905,72.9739857965802,44133.33333333334
121.34353378646105,100.46417141637966,72.83018379103295,44166.66666666666
121.78156773211569,100.6472298325723,73.26587519025875,44200.0
121.48622526636223,100.78506849315069,73.06121765601219,44233.33333333334
121.46018264840185,100.7929680365297,73.0448706240487,44266.66666666666
121.37753910101792,100.71870022300095,73.04881748812937,44300.0
121.42054009570543,100.74139717760372,72.94967844189095,44333.33333333334
121.62465753424657,100.70383561643835,73.18654490106546,44366.66666666666
121.29345105356579,100.64790121209364,72.96563964865972,44400.0
121.42101670231648,100.5004171786587,73.14681654758112,44433.33333333333
121.41086788331137,100.4941215734462,73.16518757869505,44466.66666666667
121.26544698797008,100.5093675571535,73.02116233559369,44500.0
121.38094730104544,100.40019506842636,72.95164436587524,44533.33333333333
121.31245999573288,100.41049711969278,72.91500807705205,44566.66666666667
121.17023496325865,100.28330158154164,73.11238622274637,44600.0
121.24480043689985,100.4256739331604,72.96530590573279,44633.33333333334
121.24750072058133,100.43192402797372,72.95631001683886,44666.66666666666
121.69322678843227,100.46497716894976,73.35199391171994,44700.0
121.51893455098934,100.46272450532724,73.13173515981734,44733.33333333334
121.56920489296637,100.47446483180427,73.06389908256882,44766.66666666666
121.17703080381555,100.29327419648823,72.88463758430038,44800.0
121.64605504587156,100.4724159021407,73.12252293577983,44833.33333333334
121.64616207951073,100.47625382262993,73.15100917431194,44866.66666666666
121.46709284627093,100.58359208523592,73.06004566210045,44900.0
121.54814307458142,100.59354642313544,73.0765601217656,44933.33333333333
121.40191715687769,100.54363132067421,72.9666707305922,44966.66666666667
121.79777265745008,100.62864823348694,73.06534562211979,45000.0
121.69178187403992,100.67612903225807,72.96,45033.33333333333
121.63061162079512,100.70692660550459,73.01561162079511,45066.66666666667
121.77337920489298,100.71310397553518,73.21340978593273,45100.0
121.52639519643999,100.68796671644975,73.06990459934774,45133.33333333334
121.47712517906672,100.76962114054069,73.08124295162912,45166.66666666666
121.61943425076454,100.89189602446484,73.12282874617738,45200.0
121.5817001432534,100.81918071260937,73.2084031820537,45233.33333333334
121.60003352738579,100.82113139687279,73.2162668779908,45266.66666666666
121.6538990825688,100.99778287461771,73.05834862385322,45300.0
121.6422018348624,100.91339266664636,73.24261635526837,45333.33333333334
121.3216325414667,100.82737408104988,73.07738927030805,45366.66666666666
121.69530581039757,100.97859327217128,73.15669724770645,45400.0
121.55666666666666,100.90028919330288,73.13348554033485,45433.33333333333
121.62278287461771,100.89675840978596,73.07201834862386,45466.66666666667
121.64054794520548,100.70092846270927,73.32480974124809,45500.0
121.47423135464231,100.71952815829529,73.08678843226788,45533.33333333333
121.62505327245053,100.4448401826484,73.19815829528156,45566.66666666667
121.23900544607777,100.34621277628605,72.9601177202324,45600.0
121.46731594836086,100.2007918809448,73.2802378676861,45633.33333333334
121.47937620412931,100.19483001865926,73.31003200898073,45666.66666666666
121.21518833720171,100.13245043159029,73.00970888514692,45700.0
121.24200913242012,100.1106054400097,73.03475477479938,45733.33333333334
121.23847115120851,100.09386144045841,72.89283428327593,45766.66666666666
121.38618976500351,100.01336523514892,73.09105733182969,45800.0
121.23545368648847,100.075131823585,72.89522691944282,45833.33333333334
121.24267731415159,100.07022463348473,72.8645493614557,45866.66666666666
121.21122182392612,99.93732912084576,72.97171760131233,45900.0
121.28391599865893,100.08848181901308,72.88876527782011,45933.33333333333
121.5439143730887,100.18900611620796,73.00535168195721,45966.66666666667
121.47749235474006,100.225749235474,72.88695718654434,46000.0
121.58240061162078,100.23993883792048,73.04087155963303,46033.33333333333
121.41337742692556,100.12703831265812,72.99021609924107,46066.66666666667
121.29441616629585,100.18476637508002,72.8262519430644,46100.0
121.56793867536348,100.18228230058828,73.19872595934042,46133.33333333334
121.69256850050628,100.48117578472583,73.02985486790831,46166.66666666666
121.74048960767246,100.46317252332734,73.23881736686978,46200.0
121.6808998029963,100.54130205708526,73.13915486935143,46233.33333333334
121.65568638230936,100.55707762557077,73.08420763274844,46266.66666666666
121.95880764628271,100.56285477585837,73.2280844404897,46300.0
121.85342579239668,100.63463839710349,73.05211561474027,46333.33333333334
121.92991860234268,100.6633069134558,73.30482124585758,46366.66666666666
121.84860851155227,100.68040256512532,73.05519928814705,46400.0
121.95096805866648,100.572734804087,73.23652235279678,46433.33333333333
121.97241569758522,100.56291614249331,73.24417784050813,46466.66666666667
121.77159338467676,100.52413242919823,73.00941977846645,46500.0
121.70100917431192,100.25128440366971,73.08629969418959,46533.33333333333
121.50527522935779,100.20399082568808,72.9355657492355,46566.66666666667
121.66428134556575,99.9519877675841,73.10977064220184,46600.0
121.55205424810528,99.9886471725323,72.85448436684975,46633.33333333334
121.56299285078705,99.9649136264613,72.84879261145716,46666.66666666666
121.69993249670156,99.91328894480073,73.00662759657574,46700.0
121.16714452585752,99.7916685629333,72.8187169101473,46733.33333333334
121.56415902140672,99.78851681957188,72.95440366972477,46766.66666666666
121.43669724770643,99.85863914373093,72.8133639143731,46800.0
121.5709021406728,99.82892966360858,73.00194189602449,46833.33333333334
121.58299694189604,99.82787461773701,73.03226299694191,46866.66666666666
121.44169724770643,99.86975535168196,72.84305810397555,46900.0
121.55614678899084,99.853501529052,72.98016819571866,46933.33333333333
121.47790519877675,99.91136085626913,72.83680428134556,46966.66666666667
121.54882262996942,99.89163608562693,73.0176146788991,47000.0
121.65895492620665,100.05808351999019,72.87903102083399,47033.33333333333
121.64846123162836,100.05829830321257,72.86468656991194,47066.66666666667
121.76920489296637,99.96461773700308,73.20386850152906,47100.0
121.35607607668629,99.94527416257736,72.93195464659087,47133.33333333334
121.68001529051986,100.02735474006116,73.11840978593273,47166.66666666666
121.5872018348624,100.10041284403671,72.97654434250765,47200.0
121.6193883792049,100.14183486238531,73.04513761467891,47233.33333333334
121.61533639143732,100.15704892966362,73.06957186544344,47266.66666666666
121.38984729799749,100.11537992623975,72.86073943125362,47300.0
121.688623853211,100.1609785932722,73.16180428134555,47333.33333333334
121.3949678441891,100.04006522600508,72.95536285775246,47366.66666666666
121.47272089975313,99.89403822121979,73.0374135145844,47400.0
121.135761589404,99.8143720760678,72.83556109119631,47433.33333333333
121.12388358952549,99.80777993802783,72.82099459262409,47466.66666666667
121.19036697247708,99.62193936448143,72.93006865544687,47500.0
121.09352026247038,99.61929643356218,72.78759341393767,47533.33333333333
121.28908196123702,99.47000121514064,72.99119023026915,47566.66666666667
121.05858496871014,99.41244911598518,72.76696640136095,47600.0
121.08589525487578,99.40704174008141,72.75759462907831,47633.33333333334
121.08206756182028,99.40224193450392,72.7697916033781,47666.66666666666
120.99204082872593,99.42464609028495,72.66036818761772,47700.0
121.41698179646951,99.47502181667863,72.80133808962444,47733.33333333334
121.22056447925873,99.51444725532629,72.74694443597794,47766.66666666666
121.1574602496414,99.4281594286935,72.69696646015808,47800.0
121.13116855372783,99.4654988250374,72.62743003631701,47833.33333333334
121.13039033173621,99.47798089541307,72.61961729789117,47866.66666666666
121.42702512362783,99.58794800740999,72.87571382641579,47900.0
121.36505044628504,99.64416614357671,72.75124393343233,47933.33333333333
121.25085059845678,99.52967981043808,72.89508779391215,47966.66666666667
121.15400388845006,99.60526155902546,72.75820219940458,48000.0
121.3605018530895,99.68722279603864,72.97774773680055,48033.33333333333
121.39103226198436,99.6907163254147,73.0241661097272,48066.66666666667
121.42308512908043,99.86896888049013,72.91208205065685,48100.0
121.27958867488913,99.81707576401968,72.89016647426939,48133.33333333334
121.4724770642202,99.93701423389923,72.8249718065165,48166.66666666666
121.77120795107037,100.04386850152906,73.02906727828747,48200.0
121.48756438782041,100.02424639580605,72.8995397604316,48233.33333333334
121.65588685015292,100.12663608562693,72.90336391437309,48266.66666666666
121.69061162079511,100.20987767584101,72.94133027522936,48300.0
121.48427260812582,100.15704532292969,72.86451888201407,48333.33333333334
121.75160550458716,100.21282874617737,73.02865443425077,48366.66666666666
121.64840978593271,100.20229357798166,72.89495412844038,48400.0
121.64007645259943,100.11633027522936,72.93915902140674,48433.33333333333
121.62998470948013,100.12091743119268,72.91558103975534,48466.66666666667
121.41961047273615,99.96610686092232,72.86374165625286,48500.0
121.59220031089028,99.77056600323084,73.11417598829591,48533.33333333333
121.3401658081624,99.680712609345,72.75105916059618,48566.66666666667
121.39694900789421,99.67388521442288,72.83617300131061,48600.0
121.34464628608005,99.6297814624036,72.71192355756044,48633.33333333334
121.3527995367125,99.62427992319179,72.69400164588987,48666.66666666666
121.29125402515342,99.50572635032505,72.8768910626405,48700.0
121.16500091135548,99.52495595115136,72.72367701561457,48733.33333333334
121.27747736800535,99.50078984142417,72.88851084513033,48766.66666666666
121.20335378820101,99.54365392794216,72.70022480102072,48800.0
121.32199708366244,99.52121939364478,72.90246977337627,48833.33333333334
121.34479616015554,99.52831277720396,72.91480345099946,48866.66666666666
121.3797281233808,99.71155780426105,72.76018775336036,48900.0
121.49103904416471,99.68269377305008,72.95450943338719,48933.33333333333
121.39627846017858,99.76632936084611,72.7611783352129,48966.66666666667
121.67671980249321,99.79769270626964,73.07630528208723,49000.0
121.64152905198776,99.95902140672784,72.89455657492357,49033.33333333333
121.61163608562693,99.96704892966362,72.90958715596332,49066.66666666667
121.65882262996942,100.0359021406728,72.9130275229358,49100.0
121.53083713850836,100.0904109589041,72.91461187214611,49133.33333333334
121.76284403669727,100.09685015290519,73.01434250764527,49166.66666666666
121.67955657492355,100.165,72.89530581039756,49200.0
121.81495412844038,100.15587155963304,73.05932721712539,49233.33333333334
121.72251141552508,100.16418569254185,73.1293911719939,49266.66666666666
121.60334855403349,100.2612176560122,72.96847792998477,49300.0
121.51009572353952,100.15205024348064,73.00450552951351,49333.33333333334
121.6055403348554,100.37106544901064,72.87672754946728,49366.66666666666
121.65209241366699,100.23185711237772,72.95060806486025,49400.0
121.52610564174464,100.3135877350727,72.81239903684964,49433.33333333333
121.50579109390716,100.32289920448656,72.81723002834589,49466.66666666667
121.70288640312107,100.16329360846107,73.077356822823,49500.0
121.3290250155494,100.13735038456288,72.85024044660871,49533.33333333333
121.36508442179041,100.06621763072864,72.89241341646566,49566.66666666667
121.4720700152207,100.11477929984777,72.8376407914764,49600.0
121.5425188210552,99.91308787223021,72.87503428937183,49633.33333333334
121.5606998079795,99.89850345941663,72.87863086348258,49666.66666666666
121.29507425780123,99.95649205843536,72.70783840774284,49700.0
121.34860965730671,99.94654045115976,72.7344013106995,49733.33333333334
121.36275107440031,99.9702825444238,72.62882135999268,49766.66666666666
121.88214537755822,100.10450737933785,72.88064189500169,49800.0
121.68592416120708,100.15656449962583,72.76057176891007,49833.33333333334
121.49716894977169,100.04709284627093,72.70519025875191,49866.66666666666
121.7894351033124,100.12464684412271,72.97599303614791,49900.0
121.7241642613888,100.18454208090894,72.8231395366595,49933.33333333333
121.8131202435312,100.10937595129377,73.19605783866058,49966.66666666667
121.45794520547943,100.19681887366819,72.76415525114155,50000.0
121.50724505327244,100.20855403348554,72.82896499238964,50033.33333333333
121.51523592085236,100.21423135464231,72.83805175038052,50066.66666666667
121.52628614916289,100.21794520547944,72.79721461187216,50100.0
121.72295107033639,100.21720183486241,72.90233944954129,50133.33333333334
121.65449541284404,100.30892966360857,72.79538226299695,50166.66666666666
121.74426605504587,100.38087155963305,72.87460244648318,50200.0
121.62926940639272,100.43648401826485,72.88791476407914,50233.33333333334
121.63843226788431,100.4437899543379,72.87199391171994,50266.66666666666
121.79062404870622,100.45899543378997,73.09400304414001,50300.0
121.525781641105,100.4187563524932,72.93073317252994,50333.33333333334
121.85251141552513,100.52646879756468,73.0855098934551,50366.66666666666
121.85229357798164,100.56989296636087,72.9017125382263,50400.0
122.04282874617736,100.46876146788992,73.2154740061162,50433.33333333333
122.06844036697248,100.46097859327215,73.24420489296638,50466.66666666667
121.76671253822632,100.45680428134555,72.98016819571866,50500.0
121.60676948398306,100.35246426285471,72.97400103630102,50533.33333333333
121.3504465641898,100.2164013609575,72.86404095024,50566.66666666667
121.42254997265934,100.13102254085906,72.97290236344857,50600.0
121.318366850963,100.17261072969194,72.85611215748223,50633.33333333334
121.32638677926971,100.16288960447172,72.85047694270612,50666.66666666666
121.35960568685827,100.11057779938028,72.8485934746947,50700.0
121.34965672276566,100.11120055896471,72.79207424509389,50733.33333333334
121.45499422808192,100.05446867974968,72.99526095145515,50766.66666666666
121.35608177896593,100.10034023938273,72.8434139376633,50800.0
121.49308888753872,100.05257002248013,72.97193025092655,50833.33333333334
121.50059238106813,100.05214472325173,73.00946290783159,50866.66666666666
121.25889806162873,100.11504732528955,72.87730200489884,50900.0
121.64242967373474,100.08820402211555,73.11414727504709,50933.33333333333
121.40131538975635,100.1957743483808,72.86756485813233,50966.66666666667
121.41498572209734,100.24504830184094,72.90257609818337,51000.0
121.36224861777752,100.27533568260526,72.86504344127833,51033.33333333333
121.36053223160582,100.27671790509753,72.84479616015554,51066.66666666667
121.44536423841059,100.2964791299593,72.94126313870831,51100.0
121.4334558600158,100.32220973327664,72.88481985539826,51133.33333333334
121.55493954675256,100.31898961054743,73.08326751321465,51166.66666666666
121.474011179294,100.40344188589829,72.93728355307127,51200.0
121.51298681572392,100.44955647366184,72.96097879579561,51233.33333333334
121.54189197399599,100.46151041983109,72.97455799258765,51266.66666666666
121.49816209976305,100.51938149340786,72.92605869129352,51300.0
121.63799441035299,100.52456103043929,73.08990521902909,51333.33333333334
121.57773862324564,100.61730664074364,72.9485539826235,51366.66666666666
121.68942523847136,100.68549122060878,73.14362962512911,51400.0
121.44448326143751,100.6925997934261,73.0101616137068,51433.33333333333
121.44680721793549,100.69544018470137,73.00159487210645,51466.66666666667
121.50990339631815,100.64657634121149,73.05067136521052,51500.0
121.43404824108393,100.60852724952913,72.99934686189926,51533.33333333333
121.58158150555927,100.40259128744152,73.13978674281549,51566.66666666667
121.6160199945137,100.50167636928892,73.05797189795483,51600.0
121.15955127622854,100.15893057195628,72.83911648045539,51633.33333333334
121.15248130317622,100.13490477488115,72.83210706391739,51666.66666666666
121.12851606261543,100.1208405244194,72.80355466739334,51700.0
121.27382141883913,100.01330729403216,72.98313501074878,51733.33333333334
121.18905743785388,100.02697792715051,72.87360341538741,51766.66666666666
121.22112211221123,100.01501801556302,72.84860871408242,51800.0
121.390029770946,100.15041922352512,72.87719484780364,51833.33333333334
121.37327601919922,100.14083480162829,72.85486663831338,51866.66666666666
121.6583783947992,100.03311258278143,73.19806792636248,51900.0
121.42311197521113,100.05448386900784,72.96055349656723,51933.33333333333
121.38489580168905,100.10491220608786,72.91817546631023,51966.66666666667
121.36802053587705,100.10744881220002,72.86815723920044,52000.0
121.4724770642202,100.08683698888149,73.00821738866274,52033.33333333333
121.4829120845738,100.084270004253,73.02193328877817,52066.66666666667
121.36885594507565,100.16705146120664,72.82884743909108,52100.0
121.44820462968588,100.1572240111793,72.98930676225774,52133.33333333334
121.6479299847793,100.41712328767125,72.98901065449009,52166.66666666666
121.54339416556685,100.30613328478891,73.08789575084573,52200.0
121.48929747113884,100.37002988516208,72.89335396471427,52233.33333333334
121.67305936073059,100.48911719939116,72.96849315068492,52266.66666666666
121.80911719939115,100.46261796042616,73.13217656012176,52300.0
121.68278538812784,100.53936073059359,72.89773211567731,52333.33333333334
121.80398671096346,100.48206131767776,73.27676390721946,52366.66666666666
121.57529695535429,100.59350111500478,73.02613813923148,52400.0
121.61367739195072,100.61625631456788,73.07383303751574,52433.33333333333
121.62604105038,100.62663268556864,73.09731640346486,52466.66666666667
121.5180297031205,100.6830504103521,72.99065519804607,52500.0
121.67786222485172,100.56074879776695,73.15374929838134,52533.33333333333
121.48771977730243,100.5548476160136,72.9361337398929,52566.66666666667
121.5348382105311,100.38667152110924,73.09558700829807,52600.0
121.38988758931416,100.34697128293816,72.91070859691439,52633.33333333334
121.38912908266205,100.35416192600007,72.87414857628302,52666.66666666666
121.46435777241769,100.20344665422716,73.08378464479135,52700.0
121.35985072589088,100.19250898830386,72.83637494500827,52733.33333333334
121.50930687662131,100.08097817017857,73.04767972815122,52766.66666666666
121.35554240810691,100.12242297364948,72.86580500310987,52800.0
121.7173488981682,100.00521198451644,73.03474656344297,52833.33333333334
121.94010703363917,100.08871559633027,73.13619266055045,52866.66666666666
121.5774277016743,100.06803652968037,72.91651445966514,52900.0
121.37266948831144,100.00285198501192,72.93272045995843,52933.33333333333
121.61429663608564,100.10070336391438,72.8197859327217,52966.66666666667
121.78700305810398,100.03087155963304,73.00695718654434,53000.0
121.67645259938836,100.10522935779815,72.84940366972478,53033.33333333333
121.44588375140968,100.01696180925968,72.75537200158494,53066.66666666667
121.71834862385323,100.11717125382263,72.94200305810398,53100.0
121.42791911285065,100.08950378494819,72.84682716667426,53133.33333333334
121.70280060882799,100.20700152207,73.09800608828006,53166.66666666666
121.63158295281582,100.26400304414005,72.97858447488585,53200.0
121.85951070336391,100.2180428134557,73.09957186544344,53233.33333333334
121.88880733944956,100.21400611620797,73.12469418960245,53266.66666666666
121.56374775214121,100.21629735743241,72.84095827364443,53300.0
121.86432076564358,100.19398640616905,73.22150934194886,53333.33333333334
121.75460244648322,100.4694495412844,72.95711009174313,53366.66666666666
121.6471699838459,100.37139199609864,72.93765430217319,53400.0
121.5950653784023,100.42052485598465,72.88850620256638,53433.33333333333
121.57409552257003,100.43722758999056,72.86500655307995,53466.66666666667
121.5025973631448,100.36186888632359,73.02650525548333,53500.0
121.41272252263201,100.3997964639407,72.90163436417765,53533.33333333333
121.46052311805092,100.31604289446504,72.93810377301173,53566.66666666667
121.37552402940642,100.26096664438907,72.8448872957045,53600.0
121.4482350082022,100.12121028008991,72.98437025335683,53633.33333333334
121.66294309488251,100.21053674296688,73.05454296077295,53666.66666666666
121.3317941551735,100.08785466917796,72.7666018591652,53700.0
121.42690928975028,99.90995807764747,72.94376936630415,53733.33333333334
121.26693602284463,99.91664135123641,72.78151771067502,53766.66666666666
121.42259554043379,99.8471201166535,72.9047329728416,53800.0
121.2626830305608,99.77796342426636,72.73412722522632,53833.33333333334
121.43017159925631,99.86075467097444,72.73380779664117,53866.66666666666
121.5344417690268,99.80735468926208,72.95405224176294,53900.0
121.4302553133391,99.8934753257786,72.919219041551,53933.33333333333
121.55105508275308,99.82839545502813,73.0950257133755,53966.66666666667
121.29729934989977,99.76476395892826,72.77942159304939,54000.0
121.3440063187314,99.8047420863965,72.79860562610122,54033.33333333333
121.35040099641537,99.81068108633578,72.83691293517225,54066.66666666667
121.27202442432713,99.86142839783709,72.72189987241023,54100.0
121.44957166292,99.82825505802298,72.89564979646394,54133.33333333334
121.34420377908742,99.89677380156752,72.7704903092533,54166.66666666666
121.42877756850358,99.95918646333315,72.83802175101769,54200.0
121.3438999939243,99.96325718451912,72.80610911963059,54233.33333333334
121.34781882252872,99.97543896956071,72.80559268485328,54266.66666666666
121.64148793972905,99.9967798772708,73.11171699374202,54300.0
121.36076083340893,100.08957029241888,72.93103813238984,54333.33333333334
121.40557621942,100.1137621337204,72.96956363966251,54366.66666666666
121.34183071759048,100.14022196014393,72.901524086002,54400.0
121.49773201487798,100.11483564667816,73.04855000151198,54433.33333333333
121.48859959478665,100.13367504309171,73.07156249055006,54466.66666666667
121.37436874414105,100.20826151380446,72.89735099337749,54500.0
121.39697299585714,100.2819105506668,72.9100668299616,54533.33333333333
121.38126341891196,100.28857842692551,72.87273579485318,54566.66666666667
121.41111010311771,100.2667604100517,73.03946294112309,54600.0
121.35141867671184,100.22849201045021,72.78302144723251,54633.33333333334
121.32748040585699,100.22864390303178,72.77173582842214,54666.66666666666
121.37932134394556,100.06587581262531,72.90415578103166,54700.0
121.44742296321131,100.09669602852877,72.73661190526991,54733.33333333334
121.62597153220152,99.84728275777988,72.98725959340425,54766.66666666666
121.30121308177635,99.7397512877564,72.59559876863057,54800.0
121.33160108506813,99.72149410222805,72.62595629248072,54833.33333333334
121.34063823950744,99.72696516199824,72.6216586912128,54866.66666666666
121.46848623853212,99.85833333333332,72.56577981651377,54900.0
121.4277942028102,99.69560181657472,72.6906336675912,54933.33333333333
121.29814989789386,99.71347800908288,72.55483251546829,54966.66666666667
121.5938990825688,99.76538226299697,72.72837920489297,55000.0
121.42099388379204,99.81189602446483,72.52724770642202,55033.33333333333
121.43711009174312,99.80379204892971,72.53773700305811,55066.66666666667
121.3870736688104,99.67201072876345,72.64162272547169,55100.0
121.2751074400317,99.73423450882379,72.46529915571945,55133.33333333334
121.55833333333334,99.78217125382263,72.69857798165137,55166.66666666666
121.29280075589016,99.77445213203691,72.52557225151634,55200.0
121.48365418164718,99.77117371319343,72.88014077883463,55233.33333333334
121.59494346063579,99.78347404675549,72.86755158645494,55266.66666666666
121.52717125382263,99.97888379204893,72.61909785932723,55300.0
121.57376146788992,100.01296636085628,72.66769113149847,55333.33333333334
121.4577625570776,100.04464231354643,72.65573820395737,55366.66666666666
121.3797433631016,99.98564418299856,72.6032186290347,55400.0
121.56155963302751,100.12822629969419,72.62330275229358,55433.33333333333
121.56403669724772,100.13351681957188,72.60721712538226,55466.66666666667
121.71759938837921,100.14133027522936,72.82538226299695,55500.0
121.63357798165138,100.19626911314985,72.72065749235475,55533.33333333333
121.71628440366972,100.24863914373093,72.85131498470948,55566.66666666667
121.6147247706422,100.31778287461776,72.74048929663607,55600.0
121.87559750156534,100.42406194163193,72.97660390036805,55633.33333333334
121.71493150684931,100.33669710806696,72.9632420091324,55666.66666666666
121.64304281345566,100.2746636085627,72.77639143730887,55700.0
121.78359327217129,100.09209480122324,73.02085626911315,55733.33333333334
121.51975535168195,100.06238532110092,72.67811926605505,55766.66666666666
121.5510397553517,99.99587155963304,72.72316513761469,55800.0
121.48276758409789,99.95463302752295,72.6474006116208,55833.33333333334
121.4782874617737,99.94483180428136,72.62778287461774,55866.66666666666
121.41368340943684,99.94783866057838,72.64741248097413,55900.0
121.40238964992388,99.94159817351596,72.65964992389651,55933.33333333333
121.63567278287462,99.84233944954129,72.72576452599391,55966.66666666667
121.50750764525995,99.89067278287465,72.59946483180428,56000.0
121.66379204892971,99.8178134556575,72.84157492354741,56033.33333333333
121.60576864535768,99.86127853881278,72.92465753424658,56066.66666666667
121.47756468797563,99.9418112633181,72.74164383561643,56100.0
121.4012955293618,99.82895674995069,72.8243450295059,56133.33333333334
121.5042617960426,99.99397260273972,72.7003805175038,56166.66666666666
121.355242069612,99.85001058393057,72.97686655175542,56200.0
121.32973801180236,100.0118630440389,72.74894946828685,56233.33333333334
121.5238812785388,100.09837138508371,72.77613394216134,56266.66666666666
121.54875190258751,100.15152207001522,72.80955859969558,56300.0
121.352690423095,100.0860146543485,72.7556091566923,56333.33333333334
121.45169008503763,100.1150903715444,72.73008930476394,56366.66666666666
121.45568289188942,100.13436861836693,72.71629735743241,56400.0
121.37577489491669,100.07296864132572,72.92506577156854,56433.33333333332
121.39730563367505,100.07898636184946,72.96155009223139,56466.66666666668
121.30097515037365,100.15313810073515,72.7337474937724,56500.0
121.48853211009177,100.22545415881888,72.99374202563946,56533.33333333332
121.4081353666687,100.25903760860321,72.74245093869615,56566.66666666668
121.61725441189918,100.40735773720623,72.80290469078606,56600.0
121.33416492787805,100.31186307417823,72.7424627294445,56633.33333333334
121.337899543379,100.31218059209532,72.74501799268197,56666.66666666666
121.5863043938432,100.17253318818227,73.12206295926698,56700.0
121.33864041851885,100.08012035441048,72.81208987269044,56733.33333333334
121.29060449363449,100.03760319332304,72.84996522422813,56766.66666666666
121.28130506106079,99.95768272677564,72.6366273771189,56800.0
121.61337783425449,99.97192155181652,72.7730606120918,56833.33333333334
121.80843317972351,100.0457603686636,72.80955453149001,56866.66666666666
121.44143375293363,99.99801883629492,72.71001859245939,56900.0
121.62737112849639,99.88203683573956,72.79942434588239,56933.33333333332
