Time[ms],HR[bpm]
833,77.41936
867,77.83784
900,76.36364
933,76.36364
967,76.36364
1000,76.36364
1033,76.19048000000002
1067,76.19048000000002
1100,76.19048000000002
1133,76.19048000000002
1167,76.19048000000002
1200,76.19048000000002
1233,76.19048000000002
1267,76.19048000000002
1300,76.19048000000002
1333,76.19048000000002
1367,76.19048000000002
1400,76.19048000000002
1433,76.19048000000002
1467,76.19048000000002
1500,76.19048000000002
1533,76.19048000000002
1567,76.59574
1600,77.30060999999998
1633,77.30060999999998
1667,77.30060999999998
1700,77.30060999999998
1733,77.30060999999998
1767,77.30060999999998
1800,77.41936
1833,77.41936
1867,77.41936
1900,77.41936
1933,77.41936
1967,77.41936
2000,77.41936
2033,77.41936
2067,77.41936
2100,77.41936
2133,77.41936
2167,77.41936
2200,77.41936
2233,77.41936
2267,77.41936
2300,77.41936
2333,77.41936
2367,77.41936
2400,77.41936
2433,77.77778
2467,77.77778
2500,77.77778
2533,77.77778
2567,77.77778
2600,77.41936
2633,77.41936
2667,77.41936
2700,77.41936
2733,77.41936
2767,77.41936
2800,77.41936
2833,77.41936
2867,77.41936
2900,77.41936
2933,77.41936
2967,77.41936
3000,77.41936
3033,77.41936
3067,77.41936
3100,77.41936
3133,77.41936
3167,77.41936
3200,77.41936
3233,79.24529
3267,79.24529
3300,79.24529
3333,79.24529
3367,79.24529
3400,78.68852
3433,78.68852
3467,78.68852
3500,78.68852
3533,78.68852
3567,78.68852
3600,78.68852
3633,78.68852
3667,78.68852
3700,78.68852
3733,78.68852
3767,78.68852
3800,78.68852
3833,78.68852
3867,78.68852
3900,78.68852
3933,78.68852
3967,78.68852
4000,78.68852
4033,78.68852
4067,78.68852
4100,78.68852
4133,79.24529
4167,79.24529
4200,79.24529
4233,78.26087
4267,78.26087
4300,78.26087
4333,78.26087
4367,78.26087
4400,78.26087
4433,78.26087
4467,78.26087
4500,78.26087
4533,78.26087
4567,78.26087
4600,78.26087
4633,78.26087
4667,78.26087
4700,78.26087
4733,78.26087
4767,78.26087
4800,78.26087
4833,78.26087
4867,78.26087
4900,78.26087
4933,77.30060999999998
4967,77.30060999999998
5000,77.30060999999998
5033,77.30060999999998
5067,77.30060999999998
5100,77.30060999999998
5133,75.78947
5167,75.78947
5200,75.78947
5233,75.78947
5267,75.78947
5300,75.78947
5333,75.78947
5367,75.78947
5400,75.78947
5433,75.78947
5467,75.78947
5500,75.78947
5533,75.78947
5567,75.78947
5600,75.78947
5633,74.55621
5667,74.55621
5700,74.55621
5733,74.55621
5767,74.55621
5800,74.55621
5833,74.55621
5867,74.55621
5900,74.55621
5933,74.55621
5967,74.22681
6000,74.22681
6033,74.22681
6067,74.22681
6100,74.22681
6133,74.22681
6167,74.22681
6200,74.22681
6233,74.22681
6267,74.22681
6300,74.22681
6333,73.25581
6367,73.25581
6400,73.25581
6433,73.25581
6467,73.25581
6500,73.25581
6533,73.25581
6567,73.25581
6600,73.25581
6633,73.25581
6667,73.25581
6700,73.25581
6733,73.84615
6767,73.84615
6800,73.84615
6833,73.84615
6867,73.84615
6900,73.84615
6933,73.84615
6967,73.84615
7000,73.84615
7033,73.84615
7067,73.68421
7100,73.68421
7133,73.68421
7167,73.68421
7200,73.68421
7233,73.68421
7267,73.68421
7300,73.68421
7333,73.68421
7367,73.68421
7400,73.68421
7433,73.68421
7467,73.68421
7500,73.68421
7533,73.68421
7567,73.68421
7600,73.68421
7633,73.68421
7667,72.36180999999998
7700,72.36180999999998
7733,72.36180999999998
7767,72.36180999999998
7800,72.36180999999998
7833,72.36180999999998
7867,71.59091
7900,71.59091
7933,71.59091
7967,71.59091
8000,71.59091
8033,71.59091
8067,71.59091
8100,71.59091
8133,71.59091
8167,71.59091
8200,71.59091
8233,71.18644
8267,71.18644
8300,71.18644
8333,71.18644
8367,71.18644
8400,71.18644
8433,71.18644
8467,71.18644
8500,71.18644
8533,71.18644
8567,71.18644
8600,71.18644
8633,69.61326
8667,69.61326
8700,69.61326
8733,69.61326
8767,69.61326
8800,69.61326
8833,69.61326
8867,69.61326
8900,69.61326
8933,69.61326
8967,69.61326
9000,69.61326
9033,69.61326
9067,69.61326
9100,69.61326
9133,69.61326
9167,69.61326
9200,69.61326
9233,69.61326
9267,69.61326
9300,69.61326
9333,69.61326
9367,69.61326
9400,69.61326
9433,68.78981
9467,69.23076999999999
9500,69.23076999999999
9533,69.23076999999999
9567,69.23076999999999
9600,69.23076999999999
9633,69.23076999999999
9667,69.23076999999999
9700,69.23076999999999
9733,69.23076999999999
9767,69.23076999999999
9800,69.23076999999999
9833,69.23076999999999
9867,69.23076999999999
9900,69.23076999999999
9933,69.23076999999999
9967,69.23076999999999
10000,69.23076999999999
10033,69.23076999999999
10067,68.85246
10100,68.85246
10133,68.85246
10167,68.85246
10200,68.85246
10233,68.35443000000001
10267,68.35443000000001
10300,68.35443000000001
10333,68.35443000000001
10367,68.35443000000001
10400,68.10811
10433,68.10811
10467,68.10811
10500,68.10811
10533,68.10811
10567,68.10811
10600,68.10811
10633,68.10811
10667,68.10811
10700,68.10811
10733,68.10811
10767,68.10811
10800,68.10811
10833,68.10811
10867,68.10811
10900,68.10811
10933,68.10811
10967,68.10811
11000,68.10811
11033,68.10811
11067,68.35443000000001
11100,68.35443000000001
11133,68.35443000000001
11167,68.35443000000001
11200,68.35443000000001
11233,68.35443000000001
11267,68.35443000000001
11300,68.35443000000001
11333,68.35443000000001
11367,68.35443000000001
11400,68.35443000000001
11433,68.35443000000001
11467,66.31579
11500,66.31579
11533,66.31579
11567,66.31579
11600,66.31579
11633,66.31579
11667,66.31579
11700,65.96859
11733,65.96859
11767,65.96859
11800,65.96859
11833,65.96859
11867,65.96859
11900,65.96859
11933,65.96859
11967,65.06024000000001
12000,65.06024000000001
12033,65.06024000000001
12067,65.06024000000001
12100,65.06024000000001
12133,65.06024000000001
12167,65.06024000000001
12200,65.06024000000001
12233,65.06024000000001
12267,65.06024000000001
12300,65.06024000000001
12333,65.06024000000001
12367,65.625
12400,65.625
12433,65.625
12467,65.625
12500,65.625
12533,65.625
12567,65.625
12600,65.625
12633,65.625
12667,65.625
12700,65.625
12733,65.625
12767,65.625
12800,63.905330000000006
12833,63.905330000000006
12867,63.905330000000006
12900,63.905330000000006
12933,63.905330000000006
12967,63.905330000000006
13000,63.905330000000006
13033,63.905330000000006
13067,63.905330000000006
13100,63.905330000000006
13133,63.905330000000006
13167,63.905330000000006
13200,63.905330000000006
13233,63.905330000000006
13267,63.905330000000006
13300,63.95939
13333,63.95939
13367,63.95939
13400,63.95939
13433,63.95939
13467,63.95939
13500,63.95939
13533,63.95939
13567,64.28571
13600,64.28571
13633,64.28571
13667,64.28571
13700,64.28571
13733,64.28571
13767,64.28571
13800,64.28571
13833,64.28571
13867,64.28571
13900,64.28571
13933,64.28571
13967,64.28571
14000,64.28571
14033,64.28571
14067,64.28571
14100,64.28571
14133,64.28571
14167,64.28571
14200,64.28571
14233,64.28571
14267,64.28571
14300,64.28571
14333,64.28571
14367,63.0
14400,63.0
14433,63.0
14467,63.0
14500,63.0
14533,62.7907
14567,62.7907
14600,62.7907
14633,62.7907
14667,62.7907
14700,62.7907
14733,62.7907
14767,62.7907
14800,62.7907
14833,62.7907
14867,62.7907
14900,62.7907
14933,62.7907
14967,62.7907
15000,62.7907
15033,62.7907
15067,62.7907
15100,62.7907
15133,62.7907
15167,62.7907
15200,62.7907
15233,62.7907
15267,62.7907
15300,62.7907
15333,62.7907
15367,62.7907
15400,62.7907
15433,61.76471
15467,60.67416
15500,60.67416
15533,60.67416
15567,60.67416
15600,60.67416
15633,60.67416
15667,60.67416
15700,60.67416
15733,60.67416
15767,60.67416
15800,60.67416
15833,60.67416
15867,60.67416
15900,60.67416
15933,60.67416
15967,60.67416
16000,60.67416
16033,60.67416
16067,60.67416
16100,60.67416
16133,60.67416
16167,60.67416
16200,60.67416
16233,60.67416
16267,60.67416
16300,60.67416
16333,59.60265
16367,60.33519
16400,60.33519
16433,60.33519
16467,60.33519
16500,60.33519
16533,60.33519
16567,60.33519
16600,60.33519
16633,60.33519
16667,60.33519
16700,60.33519
16733,60.33519
16767,60.33519
16800,60.33519
16833,60.33519
16867,60.33519
16900,60.33519
16933,60.33519
16967,60.33519
17000,60.33519
17033,60.33519
17067,60.33519
17100,61.01695
17133,61.01695
17167,61.01695
17200,61.01695
17233,61.01695
17267,61.01695
17300,61.64384
17333,61.71429000000001
17367,61.71429000000001
17400,61.36364
17433,61.36364
17467,61.36364
17500,61.36364
17533,61.36364
17567,61.36364
17600,61.36364
17633,61.36364
17667,61.36364
17700,61.36364
17733,61.36364
17767,61.36364
17800,61.36364
17833,61.36364
17867,61.36364
17900,61.36364
17933,61.36364
17967,61.36364
18000,61.36364
18033,61.36364
18067,61.36364
18100,61.36364
18133,61.36364
18167,61.36364
18200,61.36364
18233,61.36364
18267,61.36364
18300,61.36364
18333,60.40268
18367,60.40268
18400,60.40268
18433,60.40268
18467,59.34066
18500,59.34066
18533,59.34066
18567,59.34066
18600,59.01639
18633,59.01639
18667,59.01639
18700,59.01639
18733,59.01639
18767,59.01639
18800,59.01639
18833,59.01639
18867,59.01639
18900,59.34066
18933,59.34066
18967,59.34066
19000,59.34066
19033,59.34066
19067,59.34066
19100,59.34066
19133,59.34066
19167,59.34066
19200,59.34066
19233,58.06452
19267,58.06452
19300,58.06452
19333,58.06452
19367,58.06452
19400,58.06452
19433,58.69565
19467,58.69565
19500,58.69565
19533,58.69565
19567,58.69565
19600,58.69565
19633,58.69565
19667,58.69565
19700,58.69565
19733,58.69565
19767,58.69565
19800,58.69565
19833,58.69565
19867,58.69565
19900,58.69565
19933,58.69565
19967,58.69565
20000,58.69565
20033,58.69565
20067,58.69565
20100,58.69565
20133,59.21053000000001
20167,59.21053000000001
20200,59.21053000000001
20233,59.21053000000001
20267,59.21053000000001
20300,59.21053000000001
20333,59.21053000000001
20367,59.21053000000001
20400,59.66851
20433,59.66851
20467,59.66851
20500,59.66851
20533,59.66851
20567,59.34066
20600,59.34066
20633,59.34066
20667,59.34066
20700,59.34066
20733,59.34066
20767,59.34066
20800,59.34066
20833,59.34066
20867,59.34066
20900,59.66851
20933,59.66851
20967,59.66851
21000,59.66851
21033,59.66851
21067,59.66851
21100,59.66851
21133,59.66851
21167,59.66851
21200,60.0
21233,60.0
21267,60.0
21300,60.0
21333,60.0
21367,60.0
21400,60.0
21433,59.66851
21467,59.66851
21500,59.66851
21533,59.66851
21567,59.66851
21600,59.66851
21633,59.66851
21667,59.66851
21700,59.66851
21733,59.66851
21767,59.66851
21800,59.66851
21833,59.66851
21867,59.66851
21900,59.66851
21933,59.66851
21967,59.66851
22000,59.66851
22033,59.66851
22067,59.66851
22100,59.66851
22133,59.66851
22167,59.66851
22200,59.66851
22233,59.21053000000001
22267,59.21053000000001
22300,60.67416
22333,60.67416
22367,60.67416
22400,60.67416
22433,60.67416
22467,60.67416
22500,60.67416
22533,60.67416
22567,60.33519
22600,60.33519
22633,60.33519
22667,60.33519
22700,60.33519
22733,60.33519
22767,60.33519
22800,60.33519
22833,60.67416
22867,60.67416
22900,60.67416
22933,60.67416
22967,60.67416
23000,60.67416
23033,60.67416
23067,60.67416
23100,60.67416
23133,60.67416
23167,60.67416
23200,60.81081
23233,60.81081
23267,61.01695
23300,61.01695
23333,61.01695
23367,61.01695
23400,61.01695
23433,61.01695
23467,61.01695
23500,61.01695
23533,61.01695
23567,61.01695
23600,61.01695
23633,61.01695
23667,61.01695
23700,61.01695
23733,61.01695
23767,61.01695
23800,61.01695
23833,61.01695
23867,61.01695
23900,61.01695
23933,61.01695
23967,61.01695
24000,61.01695
24033,61.01695
24067,61.01695
24100,61.01695
24133,62.06896999999999
24167,62.06896999999999
24200,63.52941
24233,63.52941
24267,63.52941
24300,63.52941
24333,63.52941
24367,63.52941
24400,63.52941
24433,63.52941
24467,63.52941
24500,63.52941
24533,63.52941
24567,63.52941
24600,63.52941
24633,63.52941
24667,63.52941
24700,63.52941
24733,63.52941
24767,63.52941
24800,63.52941
24833,63.52941
24867,63.52941
24900,63.52941
24933,63.52941
24967,63.52941
25000,64.28571
25033,64.28571
25067,64.28571
25100,63.52941
25133,63.52941
25167,63.52941
25200,64.61539
25233,64.61539
25267,64.61539
25300,65.06024000000001
25333,65.06024000000001
25367,65.06024000000001
25400,65.06024000000001
25433,65.06024000000001
25467,65.06024000000001
25500,63.82979
25533,63.82979
25567,58.69565
25600,58.69565
25633,58.69565
25667,58.69565
25700,58.69565
25733,58.69565
25767,58.69565
25800,58.69565
25833,58.69565
25867,58.69565
25900,58.69565
25933,58.69565
25967,58.69565
26000,58.69565
26033,58.69565
26067,58.69565
26100,58.69565
26133,58.69565
26167,58.69565
26200,58.69565
26233,58.69565
26267,58.06452
26300,58.06452
26333,58.06452
26367,58.06452
26400,58.06452
26433,58.06452
26467,58.06452
26500,59.01639
26533,59.01639
26567,59.01639
26600,59.01639
26633,59.01639
26667,59.01639
26700,59.01639
26733,59.01639
26767,59.01639
26800,59.01639
26833,59.01639
26867,59.01639
26900,59.01639
26933,59.01639
26967,59.01639
27000,59.01639
27033,59.01639
27067,59.01639
27100,59.01639
27133,59.01639
27167,59.01639
27200,59.01639
27233,58.82353000000001
27267,58.82353000000001
27300,58.82353000000001
27333,58.82353000000001
27367,58.82353000000001
27400,58.82353000000001
27433,59.66851
27467,59.66851
27500,59.66851
27533,59.66851
27567,59.66851
27600,59.66851
27633,59.66851
27667,59.66851
27700,59.66851
27733,59.66851
27767,59.34066
27800,59.34066
27833,59.34066
27867,59.34066
27900,59.34066
27933,59.34066
27967,59.34066
28000,59.34066
28033,59.34066
28067,59.34066
28100,59.34066
28133,59.34066
28167,59.66851
28200,59.66851
28233,58.44156
28267,58.44156
28300,58.44156
28333,58.44156
28367,58.44156
28400,58.44156
28433,58.44156
28467,58.44156
28500,58.06452
28533,58.06452
28567,58.06452
28600,58.06452
28633,58.06452
28667,58.06452
28700,58.06452
28733,58.06452
28767,58.06452
28800,58.06452
28833,58.06452
28867,58.06452
28900,58.06452
28933,58.06452
28967,58.06452
29000,58.06452
29033,58.06452
29067,58.06452
29100,58.06452
29133,57.32484
29167,57.32484
29200,57.32484
29233,57.32484
29267,57.32484
29300,57.32484
29333,57.32484
29367,57.32484
29400,57.32484
29433,57.32484
29467,57.32484
29500,57.32484
29533,57.32484
29567,57.14286
29600,57.14286
29633,57.14286
29667,57.14286
29700,57.14286
29733,57.14286
29767,57.14286
29800,57.14286
29833,57.14286
29867,57.14286
29900,57.14286
29933,57.14286
29967,57.14286
30000,57.14286
30033,57.14286
30067,57.14286
30100,55.21473
30133,55.21473
30167,55.21473
30200,55.21473
30233,55.21473
30267,55.21473
30300,55.21473
30333,55.21473
30367,55.21473
30400,55.21473
30433,55.21473
30467,55.21473
30500,55.21473
30533,55.21473
30567,55.95855
30600,55.95855
30633,55.95855
30667,55.95855
30700,55.95855
30733,55.95855
30767,55.95855
30800,55.95855
30833,55.95855
30867,55.95855
30900,55.95855
30933,55.95855
30967,60.0
31000,60.0
31033,60.0
31067,60.0
31100,60.0
31133,60.0
31167,60.0
31200,60.0
31233,60.0
31267,60.0
31300,60.0
31333,60.0
31367,60.0
31400,60.0
31433,60.0
31467,60.0
31500,60.0
31533,60.33519
31567,60.33519
31600,60.33519
31633,60.33519
31667,60.33519
31700,60.33519
31733,60.33519
31767,60.33519
31800,60.33519
31833,60.33519
31867,60.33519
31900,60.33519
31933,60.33519
31967,60.33519
32000,60.33519
32033,60.33519
32067,60.33519
32100,60.33519
32133,60.33519
32167,60.33519
32200,60.33519
32233,60.33519
32267,60.33519
32300,60.33519
32333,60.33519
32367,60.33519
32400,59.60265
32433,59.60265
32467,59.60265
32500,60.0
32533,60.0
32567,60.0
32600,60.0
32633,60.0
32667,60.0
32700,60.0
32733,60.0
32767,60.0
32800,60.0
32833,60.0
32867,60.0
32900,60.0
32933,60.0
32967,60.0
33000,60.0
33033,60.0
33067,60.0
33100,60.0
33133,60.0
33167,60.0
33200,60.0
33233,60.0
33267,60.0
33300,60.0
33333,59.21053000000001
33367,59.21053000000001
33400,59.21053000000001
33433,60.0
33467,60.0
33500,60.0
33533,60.0
33567,60.0
33600,60.0
33633,60.0
33667,60.0
33700,60.0
33733,60.0
33767,60.0
33800,60.0
33833,60.0
33867,60.0
33900,60.0
33933,60.0
33967,60.0
34000,60.0
34033,60.0
34067,60.0
34100,60.0
34133,60.0
34167,60.0
34200,60.0
34233,60.0
34267,60.81081
34300,60.81081
34333,60.81081
34367,61.36364
34400,61.36364
34433,61.36364
34467,61.36364
34500,61.36364
34533,61.36364
34567,61.36364
34600,61.36364
34633,61.36364
34667,61.36364
34700,61.36364
34733,61.36364
34767,61.36364
34800,61.36364
34833,61.36364
34867,61.36364
34900,61.36364
34933,61.36364
34967,61.36364
35000,61.36364
35033,61.36364
35067,61.36364
35100,61.36364
35133,61.36364
35167,61.36364
35200,61.36364
35233,61.36364
35267,61.36364
35300,61.36364
35333,62.42775
35367,62.42775
35400,62.42775
35433,62.42775
35467,62.42775
35500,62.42775
35533,62.42775
35567,62.42775
35600,62.42775
35633,62.06896999999999
35667,62.06896999999999
35700,62.06896999999999
35733,62.06896999999999
35767,62.06896999999999
35800,62.06896999999999
35833,62.06896999999999
35867,62.06896999999999
35900,62.06896999999999
35933,62.06896999999999
35967,62.06896999999999
36000,62.06896999999999
36033,62.06896999999999
36067,62.06896999999999
36100,62.06896999999999
36133,62.06896999999999
36167,62.06896999999999
36200,62.06896999999999
36233,62.06896999999999
36267,62.06896999999999
36300,62.06896999999999
36333,62.06896999999999
36367,61.71429000000001
36400,61.71429000000001
36433,61.71429000000001
36467,61.71429000000001
36500,61.36364
36533,61.36364
36567,61.36364
36600,61.36364
36633,61.36364
36667,61.36364
36700,61.36364
36733,61.36364
36767,61.36364
36800,61.36364
36833,61.36364
36867,61.36364
36900,61.36364
36933,61.36364
36967,61.36364
37000,61.36364
37033,61.36364
37067,61.36364
37100,61.36364
37133,61.36364
37167,61.36364
37200,61.36364
37233,61.36364
37267,61.36364
37300,61.36364
37333,61.36364
37367,61.64384
37400,61.64384
37433,61.01695
37467,60.67416
37500,60.67416
37533,60.67416
37567,60.67416
37600,60.67416
37633,60.67416
37667,60.67416
37700,60.67416
37733,60.67416
37767,60.67416
37800,60.67416
37833,60.67416
37867,60.67416
37900,60.67416
37933,60.67416
37967,60.67416
38000,60.67416
38033,60.67416
38067,60.67416
38100,60.67416
38133,60.67416
38167,60.67416
38200,60.67416
38233,60.67416
38267,60.67416
38300,60.67416
38333,60.67416
38367,60.0
38400,60.0
38433,60.0
38467,60.0
38500,60.0
38533,60.0
38567,60.0
38600,60.0
38633,60.0
38667,60.0
38700,60.0
38733,60.0
38767,59.66851
38800,59.66851
38833,59.66851
38867,59.66851
38900,59.66851
38933,59.66851
38967,59.66851
39000,59.66851
39033,59.66851
39067,59.66851
39100,59.66851
39133,59.66851
39167,59.66851
39200,59.66851
39233,59.66851
39267,59.66851
39300,58.82353000000001
39333,58.82353000000001
39367,58.82353000000001
39400,58.82353000000001
39433,58.82353000000001
39467,58.82353000000001
39500,59.01639
39533,59.01639
39567,59.01639
39600,59.01639
39633,59.01639
39667,59.01639
39700,59.01639
39733,59.01639
39767,59.01639
39800,59.01639
39833,59.01639
39867,59.01639
39900,59.01639
39933,59.01639
39967,59.01639
40000,59.01639
40033,59.01639
40067,59.01639
40100,59.01639
40133,59.01639
40167,59.01639
40200,59.01639
40233,58.44156
40267,58.44156
40300,58.44156
40333,58.44156
40367,58.44156
40400,58.44156
40433,58.44156
40467,58.44156
40500,58.69565
40533,58.69565
40567,58.69565
40600,58.69565
40633,58.69565
40667,58.69565
40700,58.69565
40733,58.69565
40767,58.69565
40800,58.69565
40833,58.69565
40867,58.69565
40900,58.69565
40933,58.69565
40967,58.69565
41000,58.69565
41033,58.69565
41067,58.69565
41100,58.69565
41133,58.69565
41167,58.69565
41200,58.06452
41233,58.06452
41267,58.06452
41300,58.06452
41333,58.06452
41367,58.06452
41400,58.06452
41433,58.06452
41467,58.06452
41500,58.37838000000001
41533,58.37838000000001
41567,58.37838000000001
41600,58.37838000000001
41633,58.37838000000001
41667,58.37838000000001
41700,58.37838000000001
41733,58.37838000000001
41767,58.37838000000001
41800,58.37838000000001
41833,58.37838000000001
41867,58.37838000000001
41900,58.37838000000001
41933,58.37838000000001
41967,58.37838000000001
42000,58.37838000000001
42033,58.37838000000001
42067,58.37838000000001
42100,58.37838000000001
42133,58.37838000000001
42167,58.82353000000001
42200,58.82353000000001
42233,58.82353000000001
42267,58.82353000000001
42300,58.82353000000001
42333,58.82353000000001
42367,58.82353000000001
42400,58.82353000000001
42433,58.82353000000001
42467,58.82353000000001
42500,59.01639
42533,59.01639
42567,59.01639
42600,59.01639
42633,59.01639
42667,59.01639
42700,59.01639
42733,59.01639
42767,59.01639
42800,59.01639
42833,59.01639
42867,59.01639
42900,59.01639
42933,59.01639
42967,59.01639
43000,59.01639
43033,59.01639
43067,59.01639
43100,59.01639
43133,59.01639
43167,59.01639
43200,59.01639
43233,59.21053000000001
43267,59.21053000000001
43300,59.21053000000001
43333,59.21053000000001
43367,59.21053000000001
43400,59.21053000000001
43433,59.21053000000001
43467,59.21053000000001
43500,59.21053000000001
43533,59.21053000000001
43567,58.69565
43600,58.69565
43633,58.69565
43667,58.69565
43700,58.69565
43733,58.69565
43767,58.69565
43800,58.69565
43833,58.69565
43867,58.69565
43900,58.69565
43933,58.69565
43967,58.69565
44000,58.69565
44033,58.69565
44067,58.69565
44100,58.69565
44133,58.69565
44167,58.69565
44200,58.69565
44233,58.69565
44267,59.21053000000001
44300,59.21053000000001
44333,59.21053000000001
44367,59.21053000000001
44400,59.21053000000001
44433,59.21053000000001
44467,59.21053000000001
44500,59.21053000000001
44533,59.21053000000001
44567,59.21053000000001
44600,59.01639
44633,59.01639
44667,59.01639
44700,59.01639
44733,59.01639
44767,59.01639
44800,59.01639
44833,59.01639
44867,59.01639
44900,59.01639
44933,59.01639
44967,59.01639
45000,59.01639
45033,59.01639
45067,59.01639
45100,59.01639
45133,59.01639
45167,59.01639
45200,59.01639
45233,59.01639
45267,59.01639
45300,59.01639
45333,58.82353000000001
45367,58.82353000000001
45400,58.82353000000001
45433,58.82353000000001
45467,58.82353000000001
45500,58.82353000000001
45533,58.82353000000001
45567,58.82353000000001
45600,59.01639
45633,59.01639
45667,58.69565
45700,58.69565
45733,58.69565
45767,58.69565
45800,58.69565
45833,58.69565
45867,58.69565
45900,58.69565
45933,58.69565
45967,58.69565
46000,58.69565
46033,58.69565
46067,58.69565
46100,58.69565
46133,58.69565
46167,58.69565
46200,58.69565
46233,58.69565
46267,58.69565
46300,58.69565
46333,58.44156
46367,58.44156
46400,58.44156
46433,58.44156
46467,58.44156
46500,58.44156
46533,58.44156
46567,58.44156
46600,58.44156
46633,58.69565
46667,58.69565
46700,58.37838000000001
46733,58.37838000000001
46767,58.37838000000001
46800,58.37838000000001
46833,58.37838000000001
46867,58.37838000000001
46900,58.37838000000001
46933,58.37838000000001
46967,58.37838000000001
47000,58.37838000000001
47033,58.37838000000001
47067,58.37838000000001
47100,58.37838000000001
47133,58.37838000000001
47167,58.37838000000001
47200,58.37838000000001
47233,58.37838000000001
47267,58.37838000000001
47300,58.37838000000001
47333,58.06452
47367,58.06452
47400,58.06452
47433,58.06452
47467,58.06452
47500,58.06452
47533,58.06452
47567,58.06452
47600,58.06452
47633,58.06452
47667,58.06452
47700,58.06452
47733,57.75401
47767,57.75401
47800,57.75401
47833,57.75401
47867,57.75401
47900,57.75401
47933,57.75401
47967,57.75401
48000,57.75401
48033,57.75401
48067,57.75401
48100,57.75401
48133,57.75401
48167,57.75401
48200,57.75401
48233,57.75401
48267,57.75401
48300,57.75401
48333,57.32484
48367,57.32484
48400,57.32484
48433,57.32484
48467,57.32484
48500,57.32484
48533,57.32484
48567,57.32484
48600,57.32484
48633,57.32484
48667,57.32484
48700,57.32484
48733,57.32484
48767,57.32484
48800,57.14286
48833,57.14286
48867,57.14286
48900,57.14286
48933,57.14286
48967,57.14286
49000,57.14286
49033,57.14286
49067,57.14286
49100,57.14286
49133,57.14286
49167,57.14286
49200,57.14286
49233,57.14286
49267,57.14286
49300,57.14286
49333,57.32484
49367,57.32484
49400,57.32484
49433,57.32484
49467,57.32484
49500,57.32484
49533,57.32484
49567,57.32484
49600,57.32484
49633,57.32484
49667,57.32484
49700,57.32484
49733,57.32484
49767,57.32484
49800,57.75401
49833,57.75401
49867,57.75401
49900,57.75401
49933,57.75401
49967,57.75401
50000,57.75401
50033,57.75401
50067,57.75401
50100,57.75401
50133,57.75401
50167,57.75401
50200,57.75401
50233,57.75401
50267,57.75401
50300,57.75401
50333,57.75401
50367,57.75401
50400,57.69231
50433,57.69231
50467,57.69231
50500,57.69231
50533,57.69231
50567,57.69231
50600,57.69231
50633,57.69231
50667,57.69231
50700,57.69231
50733,57.69231
50767,58.37838000000001
50800,58.37838000000001
50833,58.37838000000001
50867,58.37838000000001
50900,58.37838000000001
50933,58.37838000000001
50967,58.37838000000001
51000,58.37838000000001
51033,58.37838000000001
51067,58.37838000000001
51100,58.37838000000001
51133,58.37838000000001
51167,58.37838000000001
51200,58.37838000000001
51233,58.37838000000001
51267,58.37838000000001
51300,58.37838000000001
51333,58.37838000000001
51367,58.37838000000001
51400,58.37838000000001
51433,58.44156
51467,58.44156
51500,58.44156
51533,58.44156
51567,58.44156
51600,58.44156
51633,58.44156
51667,58.44156
51700,58.44156
51733,59.01639
51767,59.01639
51800,59.01639
51833,59.01639
51867,59.01639
51900,59.01639
51933,59.01639
51967,59.01639
52000,59.01639
52033,59.01639
52067,59.01639
52100,59.01639
52133,59.01639
52167,59.01639
52200,59.01639
52233,59.01639
52267,59.01639
52300,59.01639
52333,59.01639
52367,59.01639
52400,59.01639
52433,59.01639
52467,59.21053000000001
52500,59.21053000000001
52533,59.21053000000001
52567,59.21053000000001
52600,59.21053000000001
52633,59.21053000000001
52667,59.21053000000001
52700,59.21053000000001
52733,59.34066
52767,59.34066
52800,59.34066
52833,59.34066
52867,59.34066
52900,59.34066
52933,59.01639
52967,59.01639
53000,59.01639
53033,59.01639
53067,59.01639
53100,59.01639
53133,59.01639
53167,59.01639
53200,59.01639
53233,59.01639
53267,59.01639
53300,59.01639
53333,59.01639
53367,59.01639
53400,59.01639
53433,59.01639
53467,59.01639
53500,59.60265
53533,59.60265
53567,59.60265
53600,59.60265
53633,59.60265
53667,59.60265
53700,59.60265
53733,59.60265
53767,59.60265
53800,59.60265
53833,59.60265
53867,58.69565
53900,58.69565
53933,58.69565
53967,58.69565
54000,58.69565
54033,58.69565
54067,58.69565
54100,58.69565
54133,58.69565
54167,58.69565
54200,58.69565
54233,58.69565
54267,58.69565
54300,58.69565
54333,58.69565
54367,58.69565
54400,58.69565
54433,58.69565
54467,58.69565
54500,58.69565
54533,58.69565
54567,59.21053000000001
54600,59.21053000000001
54633,59.21053000000001
54667,59.21053000000001
54700,59.21053000000001
54733,59.21053000000001
54767,59.21053000000001
54800,59.21053000000001
54833,59.21053000000001
54867,59.21053000000001
54900,59.01639
54933,59.01639
54967,59.01639
55000,59.01639
55033,59.01639
55067,59.01639
55100,59.01639
55133,59.01639
55167,59.01639
55200,59.01639
55233,59.01639
55267,59.01639
55300,59.01639
55333,59.01639
55367,59.01639
55400,59.01639
55433,59.01639
55467,59.01639
55500,59.01639
55533,59.01639
55567,59.01639
55600,59.01639
55633,58.82353000000001
55667,58.82353000000001
55700,58.82353000000001
55733,58.82353000000001
55767,58.82353000000001
55800,58.82353000000001
55833,58.82353000000001
55867,58.82353000000001
55900,58.82353000000001
55933,58.82353000000001
55967,58.82353000000001
56000,58.06452
56033,58.06452
56067,58.06452
56100,58.06452
56133,58.06452
56167,58.06452
56200,58.06452
56233,58.06452
56267,58.06452
56300,58.06452
56333,58.06452
56367,58.06452
56400,58.06452
56433,58.06452
56467,58.06452
56500,58.06452
56533,58.06452
56567,58.06452
56600,58.06452
56633,57.32484
56667,57.32484
56700,57.32484
56733,57.32484
56767,57.32484
56800,57.32484
56833,57.32484
56867,57.32484
56900,57.32484
56933,57.32484
56967,57.32484
57000,57.75401
57033,57.75401
57067,57.75401
57100,57.75401
57133,57.75401
57167,57.44681
57200,57.44681
57233,57.44681
57267,57.44681
57300,57.44681
57333,57.44681
57367,57.44681
57400,57.44681
57433,57.44681
57467,57.44681
57500,57.44681
57533,57.44681
57567,57.44681
57600,56.60378000000001
57633,56.60378000000001
57667,56.60378000000001
57700,56.60378000000001
57733,56.60378000000001
57767,56.60378000000001
57800,56.60378000000001
57833,56.60378000000001
57867,56.60378000000001
57900,56.60378000000001
57933,56.60378000000001
57967,56.60378000000001
58000,56.96202
58033,57.14286
58067,57.14286
58100,57.14286
58133,57.14286
58167,57.14286
58200,57.14286
58233,57.14286
58267,57.14286
58300,57.14286
58333,57.14286
58367,57.14286
58400,57.14286
58433,57.14286
58467,57.14286
58500,57.14286
58533,57.14286
58567,56.96202
58600,56.96202
58633,56.96202
58667,56.96202
58700,56.96202
58733,56.96202
58767,56.96202
58800,56.96202
58833,56.96202
58867,56.96202
58900,56.96202
58933,56.96202
58967,56.96202
59000,56.96202
59033,57.44681
59067,57.44681
59100,57.44681
59133,57.44681
59167,57.44681
59200,57.44681
59233,57.44681
59267,57.44681
59300,57.44681
59333,57.44681
59367,57.44681
59400,57.44681
59433,57.44681
59467,57.44681
59500,57.44681
59533,57.44681
59567,57.44681
59600,58.06452
59633,58.06452
59667,58.06452
59700,58.06452
59733,58.06452
59767,58.06452
59800,58.06452
59833,58.06452
59867,58.06452
59900,58.06452
59933,58.06452
59967,58.06452
60000,58.06452
60033,58.06452
60067,58.06452
60100,58.06452
60133,58.06452
60167,58.06452
60200,58.06452
60233,58.06452
60267,58.06452
60300,58.06452
60333,58.06452
60367,58.06452
60400,58.06452
60433,58.06452
60467,58.06452
60500,58.06452
60533,58.06452
60567,58.06452
60600,58.06452
60633,58.06452
60667,58.06452
60700,58.06452
60733,58.06452
60767,58.06452
60800,58.06452
60833,58.06452
60867,58.06452
60900,58.06452
60933,58.06452
60967,59.34066
61000,59.34066
61033,59.34066
61067,59.34066
61100,59.34066
61133,59.34066
61167,59.34066
61200,59.34066
61233,59.34066
61267,59.34066
61300,59.34066
61333,59.34066
61367,59.34066
61400,59.34066
61433,59.34066
61467,59.34066
61500,59.34066
61533,59.34066
61567,59.34066
61600,59.34066
61633,59.34066
61667,59.34066
61700,59.34066
61733,60.40268
61767,60.40268
61800,60.40268
61833,60.40268
61867,60.40268
61900,60.40268
61933,60.67416
61967,60.67416
62000,60.67416
62033,60.67416
62067,60.67416
62100,60.67416
62133,60.67416
62167,60.33519
62200,60.33519
62233,60.33519
62267,60.33519
62300,60.33519
62333,60.33519
62367,60.33519
62400,60.33519
62433,60.33519
62467,60.33519
62500,60.33519
62533,60.33519
62567,60.33519
62600,60.33519
62633,60.33519
62667,60.33519
62700,60.33519
62733,60.33519
62767,60.33519
62800,60.81081
62833,60.81081
62867,61.36364
62900,61.36364
62933,61.36364
62967,61.36364
63000,61.36364
63033,61.36364
63067,61.36364
63100,61.36364
63133,61.36364
63167,61.36364
63200,61.36364
63233,61.36364
63267,61.36364
63300,61.36364
63333,61.36364
63367,61.36364
63400,61.36364
63433,61.36364
63467,61.36364
63500,61.36364
63533,61.36364
63567,61.36364
63600,61.36364
63633,61.36364
63667,61.36364
63700,61.36364
63733,62.37624
63767,62.37624
63800,62.37624
63833,63.15789
63867,63.15789
63900,63.15789
63933,63.15789
63967,63.15789
64000,63.15789
64033,63.15789
64067,63.15789
64100,63.15789
64133,63.15789
64167,63.15789
64200,63.15789
64233,63.15789
64267,63.15789
64300,63.15789
64333,63.15789
64367,63.15789
64400,63.15789
64433,63.15789
64467,63.15789
64500,63.15789
64533,63.15789
64567,63.15789
64600,63.15789
64633,63.63636
64667,63.63636
64700,63.63636
64733,63.63636
64767,63.63636
64800,63.63636
64833,63.63636
64867,64.28571
64900,64.28571
64933,64.28571
64967,64.28571
65000,64.28571
65033,64.28571
65067,64.28571
65100,64.28571
65133,64.28571
65167,64.28571
65200,64.28571
65233,64.28571
65267,64.28571
65300,64.28571
65333,64.28571
65367,64.28571
65400,64.28571
65433,64.28571
65467,64.28571
65500,64.28571
65533,64.28571
65567,64.28571
65600,64.28571
65633,64.28571
65667,63.31658
65700,63.31658
65733,63.31658
65767,63.31658
65800,63.31658
65833,63.31658
65867,64.28571
65900,64.28571
65933,64.28571
65967,64.28571
66000,64.28571
66033,64.28571
66067,64.28571
66100,64.28571
66133,64.28571
66167,64.28571
66200,64.28571
66233,64.28571
66267,64.28571
66300,64.28571
66333,64.28571
66367,64.28571
66400,64.28571
66433,64.28571
66467,64.28571
66500,64.28571
66533,64.28571
66567,64.28571
66600,64.28571
66633,64.28571
66667,64.28571
66700,64.28571
66733,64.28571
66767,64.28571
66800,62.37624
66833,62.06896999999999
66867,62.06896999999999
66900,61.36364
66933,61.36364
66967,61.36364
67000,61.36364
67033,61.36364
67067,61.36364
67100,61.36364
67133,61.36364
67167,61.36364
67200,61.36364
67233,61.36364
67267,61.36364
67300,61.36364
67333,61.36364
67367,61.36364
67400,61.36364
67433,61.36364
67467,61.36364
67500,61.36364
67533,61.36364
67567,61.36364
67600,61.36364
67633,61.36364
67667,61.36364
67700,61.36364
67733,61.36364
67767,61.36364
67800,61.22449
67833,61.22449
67867,61.22449
67900,61.22449
67933,60.0
67967,60.0
68000,60.0
68033,60.0
68067,60.0
68100,60.0
68133,60.0
68167,60.0
68200,60.0
68233,60.0
68267,60.0
68300,60.0
68333,60.0
68367,60.0
68400,60.0
68433,60.0
68467,60.0
68500,60.0
68533,60.0
68567,60.0
68600,60.0
68633,60.0
68667,60.0
68700,60.0
68733,60.0
68767,59.21053000000001
68800,59.21053000000001
68833,59.21053000000001
68867,59.21053000000001
68900,59.21053000000001
68933,59.21053000000001
68967,59.01639
69000,59.01639
69033,59.01639
69067,59.01639
69100,59.01639
69133,59.01639
69167,59.01639
69200,59.01639
69233,59.01639
69267,59.01639
69300,59.01639
69333,59.01639
69367,59.01639
69400,59.01639
69433,59.01639
69467,59.01639
69500,59.01639
69533,59.01639
69567,59.01639
69600,59.01639
69633,59.01639
69667,59.01639
69700,57.32484
69733,57.32484
69767,57.32484
69800,57.32484
69833,57.32484
69867,57.32484
69900,57.32484
69933,57.32484
69967,57.75401
70000,57.75401
70033,57.75401
70067,57.75401
70100,57.75401
70133,57.44681
70167,57.44681
70200,57.44681
70233,57.44681
70267,57.44681
70300,57.44681
70333,57.44681
70367,57.44681
70400,57.44681
70433,57.44681
70467,57.44681
70500,57.44681
70533,57.44681
70567,55.90062
70600,55.90062
70633,56.25
70667,56.25
70700,56.25
70733,56.25
70767,56.25
70800,56.25
70833,56.25
70867,56.25
70900,56.25
70933,57.14286
70967,57.14286
71000,57.14286
71033,57.14286
71067,57.14286
71100,57.14286
71133,57.14286
71167,57.14286
71200,57.14286
71233,57.14286
71267,57.14286
71300,57.14286
71333,57.14286
71367,57.14286
71400,57.14286
71433,57.14286
71467,56.96202
71500,56.96202
71533,56.96202
71567,56.96202
71600,56.96202
71633,56.96202
71667,56.96202
71700,56.96202
71733,56.96202
71767,56.96202
71800,56.96202
71833,58.37838000000001
71867,58.37838000000001
71900,58.37838000000001
71933,58.37838000000001
71967,58.37838000000001
72000,58.37838000000001
72033,58.37838000000001
72067,58.37838000000001
72100,58.37838000000001
72133,58.37838000000001
72167,58.37838000000001
72200,58.37838000000001
72233,58.37838000000001
72267,58.37838000000001
72300,58.37838000000001
72333,58.37838000000001
72367,58.37838000000001
72400,58.37838000000001
72433,58.37838000000001
72467,58.37838000000001
72500,60.0
72533,60.0
72567,60.0
72600,60.0
72633,60.0
72667,60.0
72700,60.0
72733,60.0
72767,60.67416
72800,60.67416
72833,60.67416
72867,60.67416
72900,60.67416
72933,60.67416
72967,60.67416
73000,60.67416
73033,60.67416
73067,60.67416
73100,60.67416
73133,60.67416
73167,60.67416
73200,60.67416
73233,60.67416
73267,60.67416
73300,60.67416
73333,60.67416
73367,60.67416
73400,60.67416
73433,60.67416
73467,60.67416
73500,60.67416
73533,60.67416
73567,60.67416
73600,60.67416
73633,60.67416
73667,62.06896999999999
73700,62.06896999999999
73733,62.06896999999999
73767,62.06896999999999
73800,61.36364
73833,61.36364
73867,61.36364
73900,61.36364
73933,61.36364
73967,61.36364
74000,61.36364
74033,61.36364
74067,61.36364
74100,61.36364
74133,61.36364
74167,61.36364
74200,61.36364
74233,61.36364
74267,61.36364
74300,61.36364
74333,61.36364
74367,61.36364
74400,61.36364
74433,61.36364
74467,61.36364
74500,61.36364
74533,61.36364
74567,61.36364
74600,61.36364
74633,61.36364
74667,61.36364
74700,61.36364
74733,61.36364
74767,62.06896999999999
74800,61.71429000000001
74833,61.71429000000001
74867,61.71429000000001
74900,61.71429000000001
74933,61.71429000000001
74967,61.71429000000001
75000,61.71429000000001
75033,61.71429000000001
75067,61.71429000000001
75100,61.71429000000001
75133,61.71429000000001
75167,61.71429000000001
75200,61.71429000000001
75233,61.71429000000001
75267,61.71429000000001
75300,61.71429000000001
75333,61.71429000000001
75367,61.71429000000001
75400,61.71429000000001
75433,61.71429000000001
75467,61.71429000000001
75500,61.71429000000001
75533,61.71429000000001
75567,61.71429000000001
75600,61.71429000000001
75633,61.71429000000001
75667,61.71429000000001
75700,61.71429000000001
75733,61.71429000000001
75767,61.71429000000001
75800,62.06896999999999
75833,61.36364
75867,61.36364
75900,61.36364
75933,61.36364
75967,61.36364
76000,61.36364
76033,61.36364
76067,61.36364
76100,61.36364
76133,61.36364
76167,61.36364
76200,61.36364
76233,61.36364
76267,61.36364
76300,61.36364
76333,61.36364
76367,61.36364
76400,61.36364
76433,61.36364
76467,61.36364
76500,61.36364
76533,61.36364
76567,61.36364
76600,61.36364
76633,61.36364
76667,61.36364
76700,61.36364
76733,61.36364
76767,61.36364
76800,61.22449
76833,61.22449
76867,60.67416
76900,60.67416
76933,60.67416
76967,60.67416
77000,60.67416
77033,60.67416
77067,60.67416
77100,60.67416
77133,60.67416
77167,60.67416
77200,60.67416
77233,60.67416
77267,60.67416
77300,60.67416
77333,60.67416
77367,60.67416
77400,60.67416
77433,60.67416
77467,60.67416
77500,60.67416
77533,60.67416
77567,60.67416
77600,60.67416
77633,60.67416
77667,60.67416
77700,60.67416
77733,60.67416
77767,59.60265
77800,59.60265
77833,59.60265
77867,59.60265
77900,59.60265
77933,59.01639
77967,59.01639
78000,59.01639
78033,59.01639
78067,59.01639
78100,59.01639
78133,59.01639
78167,59.01639
78200,59.01639
78233,59.01639
78267,59.01639
78300,59.01639
78333,59.01639
78367,59.01639
78400,59.01639
78433,59.01639
78467,59.01639
78500,59.01639
78533,59.01639
78567,59.01639
78600,59.01639
78633,59.01639
78667,58.06452
78700,58.06452
78733,58.06452
78767,58.06452
78800,58.06452
78833,58.06452
78867,58.06452
78900,58.06452
78933,58.06452
78967,58.06452
79000,58.06452
79033,57.44681
79067,57.44681
79100,57.44681
79133,57.44681
79167,57.44681
79200,57.44681
79233,57.44681
79267,57.44681
79300,57.44681
79333,57.44681
79367,57.44681
79400,57.44681
79433,57.44681
79467,57.44681
79500,57.44681
79533,57.44681
79567,57.44681
79600,57.69231
79633,57.69231
79667,57.69231
79700,57.69231
79733,57.69231
79767,57.69231
79800,57.69231
79833,57.69231
79867,57.69231
79900,57.69231
79933,57.69231
79967,57.69231
80000,57.69231
80033,57.69231
80067,57.69231
80100,57.69231
80133,57.14286
80167,57.14286
80200,57.14286
80233,57.14286
80267,57.14286
80300,57.14286
80333,57.14286
80367,57.44681
80400,57.44681
80433,57.44681
80467,57.44681
80500,57.44681
80533,57.44681
80567,57.44681
80600,57.44681
80633,57.44681
80667,56.60378000000001
80700,56.60378000000001
80733,56.60378000000001
80767,56.60378000000001
80800,56.60378000000001
80833,56.60378000000001
80867,56.60378000000001
80900,56.60378000000001
80933,56.60378000000001
80967,56.60378000000001
81000,58.06452
81033,58.06452
81067,58.06452
81100,58.06452
81133,58.06452
81167,58.06452
81200,58.06452
81233,58.06452
81267,58.06452
81300,58.06452
81333,58.06452
81367,58.06452
81400,58.06452
81433,58.06452
81467,58.06452
81500,58.06452
81533,58.06452
81567,58.06452
81600,58.06452
81633,58.06452
81667,58.06452
81700,58.06452
81733,58.06452
81767,58.06452
81800,58.06452
81833,58.06452
81867,59.66851
81900,59.66851
81933,59.66851
81967,59.66851
82000,59.66851
82033,59.66851
82067,59.66851
82100,59.66851
82133,59.66851
82167,59.66851
82200,59.66851
82233,59.66851
82267,59.66851
82300,59.66851
82333,59.66851
82367,59.66851
82400,59.66851
82433,59.66851
82467,59.66851
82500,59.66851
82533,59.66851
82567,59.66851
82600,59.66851
82633,59.66851
82667,60.0
82700,60.0
82733,60.0
82767,60.0
82800,60.0
82833,60.0
82867,60.0
82900,59.66851
82933,59.66851
82967,59.66851
83000,59.66851
83033,59.66851
83067,59.66851
83100,59.66851
83133,59.66851
83167,59.66851
83200,59.66851
83233,59.66851
83267,59.66851
83300,59.66851
83333,59.66851
83367,59.66851
83400,59.66851
83433,59.66851
83467,59.66851
83500,59.66851
83533,59.66851
83567,59.66851
83600,59.66851
83633,59.66851
83667,59.66851
83700,60.40268
83733,60.40268
83767,60.40268
83800,60.40268
83833,60.40268
83867,60.40268
83900,60.33519
83933,60.33519
83967,60.33519
84000,60.33519
84033,60.33519
84067,60.33519
84100,60.33519
84133,60.33519
84167,60.33519
84200,60.33519
84233,60.33519
84267,60.33519
84300,60.33519
84333,60.33519
84367,60.33519
84400,60.67416
84433,60.67416
84467,60.67416
84500,60.67416
84533,60.67416
84567,60.67416
84600,60.67416
84633,60.67416
84667,60.67416
84700,60.67416
84733,60.67416
84767,62.06896999999999
84800,62.06896999999999
84833,62.06896999999999
84867,62.06896999999999
84900,62.06896999999999
84933,61.01695
84967,61.01695
85000,61.01695
85033,61.01695
85067,61.01695
85100,61.01695
85133,61.01695
85167,61.01695
85200,61.01695
85233,61.01695
85267,61.01695
85300,61.01695
85333,61.01695
85367,61.01695
85400,61.01695
85433,61.01695
85467,61.01695
85500,61.01695
85533,61.01695
85567,61.01695
85600,61.01695
85633,61.01695
85667,61.01695
85700,61.01695
85733,61.01695
85767,61.01695
85800,61.01695
85833,61.01695
85867,62.06896999999999
85900,62.06896999999999
85933,62.06896999999999
85967,62.06896999999999
86000,62.06896999999999
86033,62.06896999999999
86067,62.06896999999999
86100,62.06896999999999
86133,59.66851
86167,59.66851
86200,59.66851
86233,59.66851
86267,59.66851
86300,59.66851
86333,59.66851
86367,59.66851
86400,59.66851
86433,59.66851
86467,59.66851
86500,59.66851
86533,59.66851
86567,59.66851
86600,59.66851
86633,59.66851
86667,59.66851
86700,59.66851
86733,59.66851
86767,59.66851
86800,59.66851
86833,59.66851
86867,59.66851
86900,59.66851
86933,58.44156
86967,58.44156
87000,58.44156
87033,58.44156
87067,58.44156
87100,58.44156
87133,58.44156
87167,58.44156
87200,58.06452
87233,58.06452
87267,58.06452
87300,58.06452
87333,58.06452
87367,58.06452
87400,58.06452
87433,58.06452
87467,58.06452
87500,58.06452
87533,58.06452
87567,58.06452
87600,57.75401
87633,57.75401
87667,57.75401
87700,57.75401
87733,57.75401
87767,57.75401
87800,57.75401
87833,55.90062
87867,55.90062
87900,55.90062
87933,55.90062
87967,55.90062
88000,55.90062
88033,55.90062
88067,55.90062
88100,55.90062
88133,55.90062
88167,55.90062
88200,55.90062
88233,55.90062
88267,55.90062
88300,55.90062
88333,55.90062
88367,55.38462
88400,55.38462
88433,55.38462
88467,55.38462
88500,55.38462
88533,55.38462
88567,55.38462
88600,55.38462
88633,55.38462
88667,55.38462
88700,54.87805
88733,54.87805
88767,54.87805
88800,54.87805
88833,54.87805
88867,54.87805
88900,54.87805
88933,54.87805
88967,54.87805
89000,54.87805
89033,54.87805
89067,54.87805
89100,54.87805
89133,54.87805
89167,54.87805
89200,54.87805
89233,54.87805
89267,54.87805
89300,54.87805
89333,54.87805
89367,54.87805
89400,54.87805
89433,54.87805
89467,54.82233000000001
89500,54.82233000000001
89533,54.82233000000001
89567,54.82233000000001
89600,55.10204
89633,55.10204
89667,55.10204
89700,55.10204
89733,53.89222
89767,53.89222
89800,53.89222
89833,53.89222
89867,53.89222
89900,53.89222
89933,53.89222
89967,53.89222
90000,53.89222
90033,53.89222
90067,53.89222
90100,53.89222
90133,53.89222
90167,53.89222
90200,53.89222
90233,53.89222
90267,53.89222
90300,53.89222
90333,53.89222
90367,53.89222
90400,53.89222
90433,54.82233000000001
90467,54.82233000000001
90500,54.82233000000001
90533,54.82233000000001
90567,54.82233000000001
90600,54.82233000000001
90633,54.82233000000001
90667,54.82233000000001
90700,54.54546
90733,54.54546
90767,54.54546
90800,54.54546
90833,54.54546
90867,54.54546
90900,54.54546
90933,54.54546
90967,54.54546
91000,54.54546
91033,54.54546
91067,54.54546
91100,54.54546
91133,54.54546
91167,54.54546
91200,54.54546
91233,54.54546
91267,54.54546
91300,54.54546
91333,54.54546
91367,54.54546
91400,55.6701
91433,55.6701
91467,55.6701
91500,55.6701
91533,55.6701
91567,55.6701
91600,55.6701
91633,55.6701
91667,55.6701
91700,55.38462
91733,55.38462
91767,56.60378000000001
91800,56.60378000000001
91833,56.60378000000001
91867,56.60378000000001
91900,56.60378000000001
91933,56.60378000000001
91967,56.60378000000001
92000,56.60378000000001
92033,56.60378000000001
92067,56.60378000000001
92100,56.60378000000001
92133,56.60378000000001
92167,56.60378000000001
92200,56.60378000000001
92233,56.60378000000001
92267,56.60378000000001
92300,56.60378000000001
92333,56.60378000000001
92367,56.60378000000001
92400,56.60378000000001
92433,56.60378000000001
92467,56.60378000000001
92500,56.60378000000001
92533,56.60378000000001
92567,56.60378000000001
92600,55.6701
92633,55.6701
92667,55.6701
92700,55.6701
92733,55.6701
92767,55.6701
92800,55.6701
92833,55.6701
92867,55.95855
92900,55.95855
92933,55.95855
92967,56.25
93000,56.25
93033,56.25
93067,56.25
93100,56.25
93133,56.25
93167,56.25
93200,56.25
93233,56.25
93267,56.25
93300,56.25
93333,56.25
93367,56.25
93400,56.25
93433,56.25
93467,57.75401
93500,57.75401
93533,57.75401
93567,57.75401
93600,57.75401
93633,57.75401
93667,57.75401
93700,57.75401
93733,57.75401
93767,57.75401
93800,57.75401
93833,57.75401
93867,57.75401
93900,57.75401
93933,57.75401
93967,57.75401
94000,57.75401
94033,57.75401
94067,58.82353000000001
94100,58.82353000000001
94133,58.82353000000001
94167,58.82353000000001
94200,58.82353000000001
94233,58.82353000000001
94267,58.82353000000001
94300,58.82353000000001
94333,58.82353000000001
94367,58.82353000000001
94400,59.66851
94433,58.82353000000001
94467,59.01639
94500,59.01639
94533,59.01639
94567,59.01639
94600,59.01639
94633,59.01639
94667,59.01639
94700,59.01639
94733,59.01639
94767,59.01639
94800,59.01639
94833,59.01639
94867,59.01639
94900,59.01639
94933,59.01639
94967,59.01639
95000,59.01639
95033,59.01639
95067,59.01639
95100,59.01639
95133,59.01639
95167,59.01639
95200,59.60265
95233,59.60265
95267,59.60265
95300,59.60265
95333,59.60265
95367,59.60265
95400,59.60265
95433,59.60265
95467,59.60265
95500,59.60265
95533,59.01639
95567,59.01639
95600,59.01639
95633,59.01639
95667,59.01639
95700,59.01639
95733,59.01639
95767,59.01639
95800,59.01639
95833,59.01639
95867,59.01639
95900,59.01639
95933,59.01639
95967,59.01639
96000,59.01639
96033,59.01639
96067,59.01639
96100,59.01639
96133,59.01639
96167,59.01639
96200,59.01639
96233,59.01639
96267,58.82353000000001
96300,58.82353000000001
96333,58.82353000000001
96367,58.82353000000001
96400,58.82353000000001
96433,58.82353000000001
96467,59.66851
96500,59.66851
96533,59.34066
96567,59.34066
96600,59.34066
96633,59.34066
96667,59.34066
96700,59.34066
96733,59.34066
96767,59.34066
96800,59.34066
96833,59.34066
96867,59.34066
96900,59.34066
96933,59.34066
96967,59.34066
97000,59.34066
97033,59.34066
97067,59.34066
97100,59.34066
97133,59.34066
97167,59.34066
97200,59.34066
97233,59.34066
97267,59.21053000000001
97300,59.21053000000001
97333,59.21053000000001
97367,59.21053000000001
97400,59.21053000000001
97433,59.21053000000001
97467,59.21053000000001
97500,59.21053000000001
97533,59.21053000000001
97567,58.69565
97600,58.69565
97633,58.69565
97667,58.69565
97700,58.69565
97733,58.69565
97767,58.69565
97800,58.69565
97833,58.69565
97867,58.69565
97900,58.69565
97933,58.69565
97967,58.69565
98000,58.69565
98033,58.69565
98067,58.69565
98100,58.69565
98133,58.69565
98167,58.69565
98200,58.69565
98233,58.69565
98267,60.0
98300,60.0
98333,60.0
98367,60.0
98400,60.0
98433,60.0
98467,60.0
98500,60.0
98533,60.0
98567,60.0
98600,59.66851
98633,59.66851
98667,59.66851
98700,59.66851
98733,59.66851
98767,59.66851
98800,59.66851
98833,59.66851
98867,59.66851
98900,59.66851
98933,59.66851
98967,59.66851
99000,59.66851
99033,59.66851
99067,59.66851
99100,59.66851
99133,59.66851
99167,59.66851
99200,59.66851
99233,59.66851
99267,59.66851
99300,59.66851
99333,59.66851
99367,59.66851
99400,58.44156
99433,58.44156
99467,58.44156
99500,58.44156
99533,58.44156
99567,58.44156
99600,58.69565
99633,58.69565
99667,58.69565
99700,58.69565
99733,58.69565
99767,58.69565
99800,58.69565
99833,58.69565
99867,58.69565
99900,58.69565
99933,58.69565
99967,58.69565
100000,58.69565
100033,58.69565
100067,58.69565
100100,58.69565
100133,58.69565
100167,58.37838000000001
100200,58.37838000000001
100233,58.37838000000001
100267,58.69565
100300,58.44156
100333,58.44156
100367,58.44156
100400,58.44156
100433,58.44156
100467,58.44156
100500,58.44156
100533,58.44156
100567,58.44156
100600,58.44156
100633,58.37838000000001
100667,58.37838000000001
100700,58.37838000000001
100733,58.37838000000001
100767,58.37838000000001
100800,58.37838000000001
100833,58.37838000000001
100867,58.37838000000001
100900,58.37838000000001
100933,58.37838000000001
100967,58.37838000000001
101000,58.37838000000001
101033,58.37838000000001
101067,58.37838000000001
101100,58.37838000000001
101133,58.37838000000001
101167,58.37838000000001
101200,58.37838000000001
101233,58.37838000000001
101267,58.37838000000001
101300,58.82353000000001
101333,58.82353000000001
101367,58.82353000000001
101400,58.82353000000001
101433,58.82353000000001
101467,58.82353000000001
101500,58.82353000000001
101533,58.82353000000001
101567,58.82353000000001
101600,58.82353000000001
101633,59.01639
101667,59.01639
101700,59.01639
101733,59.01639
101767,59.01639
101800,59.01639
101833,59.01639
101867,59.01639
101900,59.01639
101933,59.01639
101967,59.01639
102000,59.01639
102033,59.01639
102067,59.01639
102100,59.01639
102133,59.01639
102167,59.01639
102200,59.01639
102233,59.01639
102267,59.01639
102300,59.01639
102333,59.01639
102367,58.44156
102400,58.44156
102433,58.44156
102467,58.44156
102500,60.0
102533,60.0
102567,60.0
102600,60.0
102633,60.0
102667,60.0
102700,60.0
102733,60.0
102767,60.0
102800,60.0
102833,60.0
102867,60.0
102900,60.0
102933,60.0
102967,60.0
103000,60.0
103033,60.0
103067,60.0
103100,60.0
103133,60.0
103167,60.0
103200,60.0
103233,60.0
103267,60.0
103300,60.0
103333,60.81081
103367,60.81081
103400,61.71429000000001
103433,61.71429000000001
103467,61.71429000000001
103500,61.71429000000001
103533,61.71429000000001
103567,61.71429000000001
103600,61.71429000000001
103633,61.71429000000001
103667,61.71429000000001
103700,62.06896999999999
103733,62.06896999999999
103767,62.06896999999999
103800,62.06896999999999
103833,62.06896999999999
103867,62.06896999999999
103900,62.06896999999999
103933,62.06896999999999
103967,62.06896999999999
104000,62.06896999999999
104033,62.06896999999999
104067,62.06896999999999
104100,62.06896999999999
104133,62.06896999999999
104167,62.06896999999999
104200,63.31658
104233,63.31658
104267,63.31658
104300,63.31658
104333,63.31658
104367,63.31658
104400,64.28571
104433,64.28571
104467,64.28571
104500,64.28571
104533,64.28571
104567,64.28571
104600,64.28571
104633,64.28571
104667,64.28571
104700,64.28571
104733,64.28571
104767,64.28571
104800,64.28571
104833,64.28571
104867,64.28571
104900,64.28571
104933,64.28571
104967,64.28571
105000,64.28571
105033,64.28571
105067,64.28571
105100,64.28571
105133,64.28571
105167,64.28571
105200,64.28571
105233,64.28571
105267,63.0
105300,63.0
105333,63.0
105367,63.0
105400,63.0
105433,63.52941
105467,63.52941
105500,63.52941
105533,63.52941
105567,63.52941
105600,63.52941
105633,63.905330000000006
105667,63.905330000000006
105700,63.905330000000006
105733,63.905330000000006
105767,63.905330000000006
105800,63.905330000000006
105833,63.905330000000006
105867,63.905330000000006
105900,63.905330000000006
105933,63.905330000000006
105967,63.905330000000006
106000,63.905330000000006
106033,63.905330000000006
106067,63.905330000000006
106100,63.905330000000006
106133,63.905330000000006
106167,63.905330000000006
106200,63.905330000000006
106233,63.905330000000006
106267,63.0
106300,63.0
106333,63.0
106367,63.0
106400,63.0
106433,63.905330000000006
106467,63.905330000000006
106500,63.905330000000006
106533,63.905330000000006
106567,63.905330000000006
106600,63.905330000000006
106633,63.905330000000006
106667,63.905330000000006
106700,63.905330000000006
106733,63.905330000000006
106767,63.905330000000006
106800,63.905330000000006
106833,63.905330000000006
106867,63.905330000000006
106900,63.905330000000006
106933,63.905330000000006
106967,63.905330000000006
107000,63.905330000000006
107033,63.905330000000006
107067,63.905330000000006
107100,63.905330000000006
107133,64.61539
107167,64.61539
107200,64.61539
107233,64.61539
107267,64.61539
107300,64.61539
107333,64.61539
107367,64.61539
107400,64.61539
107433,64.61539
107467,65.45454000000001
107500,65.45454000000001
107533,65.45454000000001
107567,65.45454000000001
107600,65.45454000000001
107633,65.45454000000001
107667,65.45454000000001
107700,65.45454000000001
107733,65.45454000000001
107767,65.45454000000001
107800,65.45454000000001
107833,65.45454000000001
107867,65.45454000000001
107900,65.45454000000001
107933,65.45454000000001
107967,65.45454000000001
108000,65.45454000000001
108033,65.45454000000001
108067,65.28497
108100,65.28497
108133,65.28497
108167,65.28497
108200,65.28497
108233,65.28497
108267,65.28497
108300,65.28497
108333,65.28497
108367,65.28497
108400,64.94846
108433,64.94846
108467,64.28571
108500,64.28571
108533,64.28571
108567,64.28571
108600,64.28571
108633,64.67066
108667,64.67066
108700,64.67066
108733,64.67066
108767,64.67066
108800,64.67066
108833,64.67066
108867,64.67066
108900,64.67066
108933,64.67066
108967,64.67066
109000,64.67066
109033,64.67066
109067,64.67066
109100,63.63636
109133,63.63636
109167,63.63636
109200,63.63636
109233,63.63636
109267,63.63636
109300,63.63636
109333,62.7907
109367,62.7907
109400,62.7907
109433,62.7907
109467,62.7907
109500,62.7907
109533,62.7907
109567,62.7907
109600,62.7907
109633,62.7907
109667,62.7907
109700,62.7907
109733,62.7907
109767,62.7907
109800,62.7907
109833,62.7907
109867,62.7907
109900,62.7907
109933,62.7907
109967,62.7907
110000,62.7907
110033,62.7907
110067,62.68657
110100,62.68657
110133,62.68657
110167,62.68657
110200,61.36364
110233,61.36364
110267,61.36364
110300,61.36364
110333,61.36364
110367,61.36364
110400,61.36364
110433,61.36364
110467,61.36364
110500,61.36364
110533,61.36364
110567,61.36364
110600,61.36364
110633,61.36364
110667,61.36364
110700,61.36364
110733,61.36364
110767,61.36364
110800,61.36364
110833,61.36364
110867,61.36364
110900,61.36364
110933,61.36364
110967,62.06896999999999
111000,62.06896999999999
111033,62.7907
111067,62.7907
111100,62.7907
111133,62.7907
111167,62.7907
111200,62.7907
111233,62.7907
111267,62.7907
111300,62.7907
111333,62.7907
111367,62.7907
111400,62.7907
111433,62.7907
111467,62.7907
111500,62.7907
111533,62.7907
111567,62.7907
111600,62.7907
111633,62.7907
111667,62.7907
111700,62.7907
111733,62.7907
111767,62.7907
111800,62.7907
111833,63.63636
111867,63.63636
111900,63.63636
111933,63.63636
111967,63.63636
112000,63.63636
112033,63.63636
112067,64.28571
112100,64.28571
112133,64.28571
112167,64.28571
112200,64.28571
112233,64.28571
112267,64.28571
112300,64.28571
112333,64.28571
112367,64.28571
112400,64.28571
112433,64.28571
112467,64.28571
112500,64.28571
112533,64.28571
112567,64.28571
112600,64.28571
112633,64.28571
112667,64.28571
112700,64.28571
112733,64.61539
112767,64.61539
112800,64.61539
112833,64.61539
112867,64.61539
112900,64.61539
112933,64.61539
112967,64.61539
113000,64.61539
113033,64.61539
113067,64.28571
113100,64.28571
113133,64.28571
113167,64.28571
113200,64.28571
113233,64.28571
113267,64.28571
113300,64.28571
113333,64.28571
113367,64.28571
113400,64.28571
113433,64.28571
113467,64.28571
113500,65.96859
113533,65.625
113567,65.625
113600,65.625
113633,65.625
113667,65.625
113700,65.625
113733,65.625
113767,65.625
113800,65.625
113833,65.625
113867,65.625
113900,65.625
113933,65.625
113967,65.85365999999999
114000,65.85365999999999
114033,65.85365999999999
114067,65.85365999999999
114100,65.85365999999999
114133,65.85365999999999
114167,66.25766999999999
114200,66.25766999999999
114233,66.25766999999999
114267,66.25766999999999
114300,66.25766999999999
114333,66.25766999999999
114367,66.25766999999999
114400,66.25766999999999
114433,65.96859
114467,65.96859
114500,65.96859
114533,65.96859
114567,65.96859
114600,65.96859
114633,65.96859
114667,65.96859
114700,65.96859
114733,65.96859
114767,65.96859
114800,65.96859
114833,65.96859
114867,65.96859
114900,67.5
114933,67.5
114967,67.5
115000,67.5
115033,67.5
115067,67.5
115100,67.5
115133,67.5
115167,67.5
115200,67.5
115233,67.5
115267,67.5
115300,67.5
115333,67.5
115367,67.02128
115400,67.02128
115433,67.02128
115467,67.02128
115500,67.02128
115533,67.02128
115567,67.02128
115600,67.02128
115633,67.02128
115667,67.02128
115700,67.02128
115733,67.02128
115767,67.02128
115800,67.02128
115833,67.02128
115867,67.02128
115900,67.02128
115933,67.92453
115967,67.92453
116000,67.92453
116033,67.92453
116067,67.92453
116100,67.92453
116133,67.92453
116167,67.92453
116200,67.92453
116233,67.92453
116267,67.92453
116300,67.37968000000001
116333,67.37968000000001
116367,67.37968000000001
116400,67.37968000000001
116433,67.37968000000001
116467,67.37968000000001
116500,67.37968000000001
116533,67.37968000000001
116567,67.37968000000001
116600,67.37968000000001
116633,67.37968000000001
116667,67.37968000000001
116700,67.37968000000001
116733,67.37968000000001
116767,67.37968000000001
116800,67.37968000000001
116833,67.37968000000001
116867,67.37968000000001
116900,67.5
116933,67.5
116967,67.5
117000,67.5
117033,67.5
117067,67.5
117100,67.5
117133,67.5
117167,67.5
117200,67.37968000000001
117233,67.37968000000001
117267,67.37968000000001
117300,67.37968000000001
117333,67.37968000000001
117367,67.37968000000001
117400,67.37968000000001
117433,67.37968000000001
117467,67.37968000000001
117500,67.37968000000001
117533,67.37968000000001
117567,67.37968000000001
117600,67.37968000000001
117633,67.37968000000001
117667,67.37968000000001
117700,67.37968000000001
117733,67.37968000000001
117767,67.37968000000001
117800,67.08074
117833,67.08074
117867,67.08074
117900,67.08074
117933,67.08074
117967,67.08074
118000,67.08074
118033,67.08074
118067,67.08074
118100,67.08074
118133,66.66666
118167,66.66666
118200,66.66666
118233,66.66666
118267,66.66666
118300,66.66666
118333,66.66666
118367,66.66666
118400,66.66666
118433,66.66666
118467,66.66666
118500,66.66666
118533,66.66666
118567,66.66666
118600,66.66666
118633,66.66666
118667,66.66666
118700,66.66666
118733,66.66666
118767,66.66666
118800,66.66666
118833,66.66666
118867,66.66666
118900,66.66666
118933,66.66666
118967,69.23076999999999
119000,69.23076999999999
119033,69.23076999999999
119067,69.23076999999999
119100,69.23076999999999
119133,69.23076999999999
119167,69.23076999999999
119200,69.23076999999999
119233,69.23076999999999
119267,69.23076999999999
119300,69.23076999999999
119333,69.23076999999999
119367,69.23076999999999
119400,69.23076999999999
119433,69.23076999999999
119467,69.23076999999999
119500,69.23076999999999
119533,69.23076999999999
119567,67.92453
119600,67.92453
119633,67.92453
119667,68.10811
119700,68.10811
119733,68.10811
119767,68.10811
119800,68.10811
119833,68.10811
119867,68.10811
119900,68.10811
119933,68.10811
119967,68.10811
120000,68.47825999999999
120033,68.47825999999999
120067,68.47825999999999
120100,68.47825999999999
120133,68.47825999999999
120167,68.47825999999999
120200,68.47825999999999
120233,68.47825999999999
120267,68.47825999999999
120300,68.47825999999999
120333,69.23076999999999
120367,69.23076999999999
120400,69.23076999999999
120433,69.23076999999999
120467,69.23076999999999
120500,69.23076999999999
120533,69.23076999999999
120567,69.23076999999999
120600,69.23076999999999
120633,69.23076999999999
120667,69.23076999999999
120700,69.23076999999999
120733,69.23076999999999
120767,69.23076999999999
120800,69.23076999999999
120833,69.23076999999999
120867,69.23076999999999
120900,69.23076999999999
120933,69.23076999999999
120967,69.23076999999999
121000,69.23076999999999
121033,69.23076999999999
121067,69.23076999999999
121100,69.23076999999999
121133,69.23076999999999
121167,69.23076999999999
121200,69.23076999999999
121233,69.23076999999999
121267,70.12987
121300,70.12987
121333,70.12987
121367,70.12987
121400,69.61326
121433,69.61326
121467,69.61326
121500,69.61326
121533,69.61326
121567,69.61326
121600,69.61326
121633,69.61326
121667,69.61326
121700,69.61326
121733,69.61326
121767,69.61326
121800,69.61326
121833,69.61326
121867,69.61326
121900,69.61326
121933,69.61326
121967,69.61326
122000,69.61326
122033,69.61326
122067,69.61326
122100,69.61326
122133,69.61326
122167,69.61326
122200,70.58823000000002
122233,70.58823000000002
122267,70.58823000000002
122300,70.58823000000002
122333,69.61326
122367,69.61326
122400,69.61326
122433,69.61326
122467,69.61326
122500,69.61326
122533,69.61326
122567,69.61326
122600,69.61326
122633,69.61326
122667,69.61326
122700,69.61326
122733,69.61326
122767,69.61326
122800,69.61326
122833,69.61326
122867,69.61326
122900,69.61326
122933,69.61326
122967,69.61326
123000,69.61326
123033,69.61326
123067,69.61326
123100,69.61326
123133,70.12987
123167,70.12987
123200,70.12987
123233,70.12987
123267,69.23076999999999
123300,69.23076999999999
123333,69.23076999999999
123367,69.23076999999999
123400,69.23076999999999
123433,69.23076999999999
123467,69.23076999999999
123500,69.23076999999999
123533,69.23076999999999
123567,69.23076999999999
123600,69.23076999999999
123633,69.23076999999999
123667,69.23076999999999
123700,69.23076999999999
123733,69.23076999999999
123767,69.23076999999999
123800,69.23076999999999
123833,69.23076999999999
123867,69.23076999999999
123900,69.23076999999999
123933,69.23076999999999
123967,69.23076999999999
124000,69.23076999999999
124033,70.12987
124067,70.12987
124100,70.12987
124133,70.12987
124167,69.67742
124200,69.67742
124233,69.67742
124267,69.67742
124300,69.67742
124333,67.37968000000001
124367,67.37968000000001
124400,67.37968000000001
124433,67.37968000000001
124467,67.37968000000001
124500,67.37968000000001
124533,67.37968000000001
124567,67.37968000000001
124600,67.37968000000001
124633,67.37968000000001
124667,67.37968000000001
124700,67.37968000000001
124733,67.37968000000001
124767,67.37968000000001
124800,67.37968000000001
124833,67.37968000000001
124867,67.37968000000001
124900,67.37968000000001
124933,65.45454000000001
124967,65.45454000000001
125000,65.45454000000001
125033,65.45454000000001
125067,65.45454000000001
125100,65.45454000000001
125133,65.45454000000001
125167,65.45454000000001
125200,65.45454000000001
125233,65.45454000000001
125267,65.45454000000001
125300,64.94846
125333,64.94846
125367,64.94846
125400,64.94846
125433,64.94846
125467,64.94846
125500,64.94846
125533,64.94846
125567,64.94846
125600,64.94846
125633,64.94846
125667,63.15789
125700,63.15789
125733,63.15789
125767,63.15789
125800,63.15789
125833,63.15789
125867,63.15789
125900,63.15789
125933,63.15789
125967,63.15789
126000,63.15789
126033,63.15789
126067,63.15789
126100,63.15789
126133,63.15789
126167,63.95939
126200,63.95939
126233,63.95939
126267,63.95939
126300,63.95939
126333,63.95939
126367,63.95939
126400,63.95939
126433,63.52941
126467,63.52941
126500,63.52941
126533,63.52941
126567,62.7907
126600,62.7907
126633,62.7907
126667,62.7907
126700,62.7907
126733,62.7907
126767,62.7907
126800,62.7907
126833,62.7907
126867,62.7907
126900,62.7907
126933,62.7907
126967,62.7907
127000,62.7907
127033,62.7907
127067,62.7907
127100,62.7907
127133,63.31658
127167,63.31658
127200,63.31658
127233,63.31658
127267,63.31658
127300,63.31658
127333,62.7907
127367,62.7907
127400,62.7907
127433,62.7907
127467,62.7907
127500,62.7907
127533,62.7907
127567,62.7907
127600,62.7907
127633,62.7907
127667,62.7907
127700,62.7907
127733,62.7907
127767,62.7907
127800,62.7907
127833,62.7907
127867,62.7907
127900,62.7907
127933,62.7907
127967,62.7907
128000,62.7907
128033,62.7907
128067,63.0
128100,63.0
128133,63.0
128167,63.0
128200,63.0
128233,62.7907
128267,62.7907
128300,62.7907
128333,62.7907
128367,62.7907
128400,62.7907
128433,62.7907
128467,62.7907
128500,62.7907
128533,62.7907
128567,62.7907
128600,62.7907
128633,62.7907
128667,62.7907
128700,62.7907
128733,62.7907
128767,62.7907
128800,62.7907
128833,62.7907
128867,62.7907
128900,62.7907
128933,62.7907
128967,62.7907
129000,62.7907
129033,62.42775
129067,62.42775
129100,62.42775
129133,61.76471
129167,61.36364
129200,61.36364
129233,61.36364
129267,61.36364
129300,61.36364
129333,61.36364
129367,61.36364
129400,61.36364
129433,61.36364
129467,61.36364
129500,61.36364
129533,61.36364
129567,61.36364
129600,61.36364
129633,61.36364
129667,61.36364
129700,61.36364
129733,61.36364
129767,61.36364
129800,61.36364
129833,61.36364
129867,61.36364
129900,61.36364
129933,61.36364
129967,61.36364
130000,61.36364
130033,61.36364
130067,61.36364
130100,62.5
130133,62.06896999999999
130167,62.5
130200,61.36364
130233,61.36364
130267,61.36364
130300,61.36364
130333,61.36364
130367,61.36364
130400,61.36364
130433,61.36364
130467,61.36364
130500,61.36364
130533,61.36364
130567,61.36364
130600,61.36364
130633,61.36364
130667,61.36364
130700,61.36364
130733,61.36364
130767,61.36364
130800,61.36364
130833,61.36364
130867,61.36364
130900,61.36364
130933,61.36364
130967,61.36364
131000,61.36364
131033,61.36364
131067,61.36364
131100,61.36364
131133,61.36364
131167,61.22449
131200,61.22449
131233,60.67416
131267,60.67416
131300,60.67416
131333,60.67416
131367,60.67416
131400,60.67416
131433,60.67416
131467,60.67416
131500,60.67416
131533,60.67416
131567,60.67416
131600,60.67416
131633,60.67416
131667,60.67416
131700,60.67416
131733,60.67416
131767,60.67416
131800,60.67416
131833,60.67416
131867,60.67416
131900,60.67416
131933,60.67416
131967,60.67416
132000,60.67416
132033,60.67416
132067,60.67416
132100,60.67416
132133,60.0
132167,60.0
132200,60.33519
132233,60.33519
132267,60.33519
132300,60.33519
132333,60.33519
132367,60.33519
132400,60.33519
132433,60.33519
132467,60.33519
132500,60.33519
132533,60.33519
132567,60.33519
132600,60.33519
132633,60.33519
132667,60.33519
132700,60.33519
132733,60.33519
132767,60.67416
132800,60.67416
132833,60.67416
132867,60.67416
132900,60.67416
132933,60.67416
132967,60.67416
133000,60.67416
133033,60.67416
133067,59.60265
133100,59.60265
133133,60.0
133167,60.0
133200,60.0
133233,60.0
133267,60.0
133300,60.0
133333,59.66851
133367,59.66851
133400,59.66851
133433,59.66851
133467,59.66851
133500,59.66851
133533,59.66851
133567,59.66851
133600,59.66851
133633,59.66851
133667,59.66851
133700,59.66851
133733,59.66851
133767,59.66851
133800,59.66851
133833,59.66851
133867,59.66851
133900,59.66851
133933,59.66851
133967,59.21053000000001
134000,59.21053000000001
134033,59.21053000000001
134067,59.21053000000001
134100,59.21053000000001
134133,59.21053000000001
134167,59.21053000000001
134200,59.01639
134233,59.01639
134267,59.01639
134300,59.01639
134333,59.01639
134367,59.01639
134400,59.01639
134433,59.01639
134467,59.01639
134500,59.01639
134533,59.01639
134567,59.01639
134600,59.01639
134633,59.01639
134667,59.01639
134700,59.01639
134733,59.01639
134767,59.01639
134800,59.01639
134833,59.01639
134867,59.01639
134900,59.01639
134933,58.82353000000001
134967,58.82353000000001
135000,58.82353000000001
135033,58.82353000000001
135067,58.82353000000001
135100,58.82353000000001
135133,59.66851
135167,59.66851
135200,59.66851
135233,59.66851
135267,59.66851
135300,59.66851
135333,59.66851
135367,59.66851
135400,59.66851
135433,59.66851
135467,59.66851
135500,59.66851
135533,59.66851
135567,59.66851
135600,59.66851
135633,59.66851
135667,59.66851
135700,59.66851
135733,59.66851
135767,59.66851
135800,59.66851
135833,59.66851
135867,59.66851
135900,59.66851
135933,60.81081
135967,60.81081
136000,60.81081
136033,60.81081
136067,60.81081
136100,60.81081
136133,60.81081
136167,60.33519
136200,60.33519
136233,60.33519
136267,60.0
136300,60.0
136333,60.0
136367,60.0
136400,60.0
136433,60.0
136467,60.0
136500,60.0
136533,60.0
136567,60.0
136600,60.0
136633,60.0
136667,60.0
136700,60.0
136733,60.0
136767,60.0
136800,60.0
136833,60.0
136867,60.0
136900,60.0
136933,60.0
136967,60.0
137000,60.0
137033,60.40268
137067,60.40268
137100,60.40268
137133,60.40268
137167,60.40268
137200,60.40268
137233,60.40268
137267,59.66851
137300,59.66851
137333,59.66851
137367,59.66851
137400,59.66851
137433,59.66851
137467,59.34066
137500,59.34066
137533,59.34066
137567,59.34066
137600,59.34066
137633,59.34066
137667,59.66851
137700,59.66851
137733,59.66851
137767,59.66851
137800,59.66851
137833,59.66851
137867,59.66851
137900,59.66851
137933,59.66851
137967,59.66851
138000,59.66851
138033,59.66851
138067,58.82353000000001
138100,58.82353000000001
138133,58.82353000000001
138167,58.82353000000001
138200,58.82353000000001
138233,59.34066
138267,59.34066
138300,59.34066
138333,59.01639
138367,59.01639
138400,59.01639
138433,59.01639
138467,59.01639
138500,59.01639
138533,59.01639
138567,59.01639
138600,59.01639
138633,59.01639
138667,59.01639
138700,59.01639
138733,59.01639
138767,59.01639
138800,59.01639
138833,59.01639
138867,59.01639
138900,59.01639
138933,59.01639
138967,59.01639
139000,58.82353000000001
139033,58.82353000000001
139067,58.82353000000001
139100,58.82353000000001
139133,58.82353000000001
139167,58.82353000000001
139200,58.82353000000001
139233,58.82353000000001
139267,59.01639
139300,59.01639
139333,59.01639
139367,59.01639
139400,59.01639
139433,59.01639
139467,59.01639
139500,59.01639
139533,59.01639
139567,59.01639
139600,59.01639
139633,59.01639
139667,59.01639
139700,59.01639
139733,59.01639
139767,59.01639
139800,59.01639
139833,59.01639
139867,59.01639
139900,59.01639
139933,59.01639
139967,59.01639
140000,59.21053000000001
140033,59.21053000000001
140067,59.21053000000001
140100,59.21053000000001
140133,59.21053000000001
140167,59.21053000000001
140200,59.21053000000001
140233,59.21053000000001
140267,59.34066
140300,59.34066
140333,59.34066
140367,59.34066
140400,59.34066
140433,59.34066
140467,59.34066
140500,59.34066
140533,59.34066
140567,59.34066
140600,59.34066
140633,59.34066
140667,59.34066
140700,59.34066
140733,59.34066
140767,59.34066
140800,59.34066
140833,59.34066
140867,59.34066
140900,59.34066
140933,59.34066
140967,59.34066
141000,59.34066
141033,58.44156
141067,58.44156
141100,58.44156
141133,58.44156
141167,58.44156
141200,58.44156
141233,59.01639
141267,59.01639
141300,59.01639
141333,59.01639
141367,59.01639
141400,59.01639
141433,59.01639
141467,59.01639
141500,59.01639
141533,59.01639
141567,59.01639
141600,59.01639
141633,59.01639
141667,59.01639
141700,59.01639
141733,59.01639
141767,59.01639
141800,59.01639
141833,59.01639
141867,59.01639
141900,59.01639
141933,59.01639
141967,59.60265
142000,59.60265
142033,59.60265
142067,59.60265
142100,59.60265
142133,59.60265
142167,59.60265
142200,59.60265
142233,59.66851
142267,59.66851
142300,59.34066
142333,59.34066
142367,59.34066
142400,59.34066
142433,59.34066
142467,59.34066
142500,59.34066
142533,59.34066
142567,59.34066
142600,59.34066
142633,59.34066
142667,59.34066
142700,59.34066
142733,59.34066
142767,59.34066
142800,59.34066
142833,59.34066
142867,59.34066
142900,59.34066
142933,59.34066
142967,59.34066
143000,59.34066
143033,60.0
143067,60.0
143100,60.0
143133,60.0
143167,60.0
143200,60.0
143233,60.0
143267,60.0
143300,60.0
143333,60.0
143367,60.0
143400,60.0
143433,60.0
143467,60.0
143500,60.0
143533,60.0
143567,60.0
143600,60.0
143633,60.0
143667,60.0
143700,60.0
143733,60.0
143767,60.0
143800,60.0
143833,60.0
143867,60.0
143900,60.0
143933,60.0
143967,60.0
144000,60.0
144033,60.0
144067,60.0
144100,60.0
144133,60.0
144167,60.0
144200,60.0
144233,60.33519
144267,60.33519
144300,60.33519
144333,60.33519
144367,60.33519
144400,60.33519
144433,60.33519
144467,60.33519
144500,60.33519
144533,60.33519
144567,60.33519
144600,60.33519
144633,60.33519
144667,60.33519
144700,60.33519
144733,60.33519
144767,60.33519
144800,60.33519
144833,60.33519
144867,60.33519
144900,60.33519
144933,60.33519
144967,60.33519
145000,60.33519
145033,60.33519
145067,60.33519
145100,60.40268
145133,60.40268
145167,60.40268
145200,60.67416
145233,60.67416
145267,60.67416
145300,60.67416
145333,60.67416
145367,60.67416
145400,60.67416
145433,60.67416
145467,60.67416
145500,60.67416
145533,60.67416
145567,60.67416
145600,60.67416
145633,60.67416
145667,60.67416
145700,60.67416
145733,60.67416
145767,60.67416
145800,60.67416
145833,60.67416
145867,60.67416
145900,60.67416
145933,60.67416
145967,60.67416
146000,60.67416
146033,60.67416
146067,60.67416
146100,60.81081
146133,60.81081
146167,60.81081
146200,60.81081
146233,60.33519
146267,60.33519
146300,60.33519
146333,60.33519
146367,60.33519
146400,60.33519
146433,60.33519
146467,60.33519
146500,60.33519
146533,60.33519
146567,60.33519
146600,60.33519
146633,60.33519
146667,60.33519
146700,60.33519
146733,60.33519
146767,60.33519
146800,60.33519
146833,60.33519
146867,60.33519
146900,60.33519
146933,60.33519
146967,60.33519
147000,60.33519
147033,60.33519
147067,60.33519
147100,60.0
147133,60.0
147167,60.0
147200,60.33519
147233,60.33519
147267,60.33519
147300,60.33519
147333,60.33519
147367,60.33519
147400,60.33519
147433,60.33519
147467,60.33519
147500,60.33519
147533,60.33519
147567,60.33519
147600,60.33519
147633,60.33519
147667,60.33519
147700,60.33519
147733,60.33519
147767,60.33519
147800,60.33519
147833,60.33519
147867,60.33519
147900,60.33519
147933,60.33519
147967,60.33519
148000,60.33519
148033,60.33519
148067,60.81081
148100,60.81081
148133,61.36364
148167,61.36364
148200,61.36364
148233,61.36364
148267,61.36364
148300,61.36364
148333,61.36364
148367,61.36364
148400,61.36364
148433,61.36364
148467,61.36364
148500,61.36364
148533,61.36364
148567,61.36364
148600,61.36364
148633,61.36364
148667,61.36364
148700,61.36364
148733,61.36364
148767,61.36364
148800,61.36364
148833,61.36364
148867,61.36364
148900,61.36364
148933,61.36364
148967,61.36364
149000,61.36364
149033,61.36364
149067,61.36364
149100,61.64384
149133,61.64384
149167,61.01695
149200,61.01695
149233,61.01695
149267,61.01695
149300,61.01695
149333,61.01695
149367,61.01695
149400,61.01695
149433,61.01695
149467,61.01695
149500,61.01695
149533,61.01695
149567,61.01695
149600,61.01695
149633,61.01695
149667,61.01695
149700,61.01695
149733,61.01695
149767,61.01695
149800,61.01695
149833,61.01695
149867,61.01695
149900,61.01695
149933,61.01695
149967,61.01695
150000,61.01695
150033,61.01695
150067,61.01695
150100,60.81081
150133,60.81081
150167,60.67416
150200,60.67416
150233,60.67416
150267,60.67416
150300,60.67416
150333,60.67416
150367,60.67416
150400,60.67416
150433,60.67416
150467,60.67416
150500,60.67416
150533,60.67416
150567,60.67416
150600,60.67416
150633,60.67416
150667,60.67416
150700,60.67416
150733,60.67416
150767,60.67416
150800,60.67416
150833,60.67416
150867,60.67416
150900,60.67416
150933,60.67416
150967,60.67416
151000,60.67416
151033,60.67416
151067,60.40268
151100,61.01695
151133,61.01695
151167,61.01695
151200,61.01695
151233,61.01695
151267,61.01695
151300,61.01695
151333,61.01695
151367,61.01695
151400,61.01695
151433,61.01695
151467,61.01695
151500,61.01695
151533,61.01695
151567,61.01695
151600,61.01695
151633,61.01695
151667,61.01695
151700,61.01695
151733,61.01695
151767,61.01695
151800,61.01695
151833,61.01695
151867,61.01695
151900,61.01695
151933,61.01695
151967,61.01695
152000,61.01695
152033,61.64384
152067,61.64384
152100,61.64384
152133,61.01695
152167,61.01695
152200,61.01695
152233,61.01695
152267,61.01695
152300,61.01695
152333,61.01695
152367,61.01695
152400,61.01695
152433,61.01695
152467,61.01695
152500,61.01695
152533,61.01695
152567,61.01695
152600,61.01695
152633,61.01695
152667,61.01695
152700,61.01695
152733,61.01695
152767,61.01695
152800,61.01695
152833,61.01695
152867,61.01695
152900,61.01695
152933,61.01695
152967,61.01695
153000,61.01695
153033,61.01695
153067,61.36364
153100,61.36364
153133,61.36364
153167,61.36364
153200,61.36364
153233,61.36364
153267,61.36364
153300,61.36364
153333,61.36364
153367,61.36364
153400,61.36364
153433,61.36364
153467,61.36364
153500,61.36364
153533,61.36364
153567,61.36364
153600,61.36364
153633,61.36364
153667,61.36364
153700,61.36364
153733,61.36364
153767,61.36364
153800,61.36364
153833,61.36364
153867,61.36364
153900,61.36364
153933,61.36364
153967,61.36364
154000,61.76471
154033,61.36364
154067,61.36364
154100,61.36364
154133,61.36364
154167,61.36364
154200,61.36364
154233,61.36364
154267,61.36364
154300,61.36364
154333,61.36364
154367,61.36364
154400,61.36364
154433,61.36364
154467,61.36364
154500,61.36364
154533,61.36364
154567,61.36364
154600,61.36364
154633,61.36364
154667,61.36364
154700,61.36364
154733,61.36364
154767,61.36364
154800,61.36364
154833,61.36364
154867,61.36364
154900,61.36364
154933,61.36364
154967,62.06896999999999
155000,62.06896999999999
155033,61.36364
155067,61.36364
155100,61.36364
155133,61.36364
155167,61.36364
155200,61.36364
155233,61.36364
155267,61.36364
155300,61.36364
155333,61.36364
155367,61.01695
155400,61.01695
155433,61.01695
155467,61.01695
155500,61.01695
155533,61.01695
155567,61.01695
155600,61.01695
155633,61.01695
155667,61.01695
155700,61.01695
155733,61.01695
155767,61.01695
155800,61.01695
155833,61.01695
155867,61.01695
155900,61.01695
155933,61.01695
155967,61.01695
156000,60.81081
156033,60.81081
156067,60.81081
156100,60.81081
156133,60.81081
156167,59.66851
156200,59.66851
156233,59.66851
156267,59.66851
156300,59.66851
156333,59.66851
156367,59.66851
156400,59.66851
156433,59.66851
156467,59.66851
156500,59.66851
156533,59.66851
156567,59.66851
156600,59.66851
156633,59.66851
156667,59.66851
156700,59.66851
156733,59.66851
156767,59.66851
156800,59.66851
156833,59.66851
156867,59.66851
156900,59.66851
156933,59.66851
156967,59.21053000000001
157000,59.21053000000001
157033,59.21053000000001
157067,59.21053000000001
157100,60.0
157133,60.0
157167,60.0
157200,60.0
157233,60.0
157267,60.0
157300,60.0
157333,60.0
157367,60.0
157400,60.0
157433,60.0
157467,60.0
157500,60.0
157533,60.0
157567,60.0
157600,60.0
157633,60.0
157667,60.0
157700,60.0
157733,60.0
157767,60.0
157800,60.0
157833,60.0
157867,60.0
157900,60.0
157933,60.40268
157967,60.40268
158000,60.40268
158033,61.01695
158067,61.01695
158100,61.01695
158133,61.01695
158167,61.01695
158200,61.01695
158233,61.01695
158267,61.01695
158300,61.01695
158333,61.01695
158367,61.01695
158400,61.01695
158433,61.01695
158467,61.01695
158500,61.01695
158533,61.01695
158567,61.01695
158600,61.01695
158633,61.01695
158667,61.01695
158700,61.01695
158733,61.01695
158767,61.01695
158800,61.01695
158833,61.01695
158867,61.01695
158900,61.01695
158933,61.01695
158967,60.40268
159000,60.40268
159033,60.33519
159067,60.33519
159100,60.33519
159133,60.33519
159167,60.33519
159200,60.33519
159233,60.33519
159267,60.33519
159300,60.33519
159333,60.33519
159367,60.33519
159400,60.33519
159433,60.33519
159467,60.33519
159500,60.33519
159533,60.33519
159567,60.33519
159600,60.33519
159633,60.33519
159667,60.33519
159700,60.33519
159733,60.33519
159767,60.33519
159800,60.33519
159833,62.06896999999999
159867,62.06896999999999
159900,61.71429000000001
159933,61.71429000000001
159967,61.71429000000001
160000,61.71429000000001
160033,61.71429000000001
160067,61.71429000000001
160100,61.36364
160133,61.36364
160167,61.71429000000001
160200,61.71429000000001
160233,61.71429000000001
160267,61.71429000000001
160300,61.71429000000001
160333,61.71429000000001
160367,61.71429000000001
160400,61.71429000000001
160433,61.71429000000001
160467,61.71429000000001
160500,61.71429000000001
160533,61.71429000000001
160567,61.71429000000001
160600,61.71429000000001
160633,61.71429000000001
160667,61.71429000000001
160700,61.71429000000001
160733,61.71429000000001
160767,61.71429000000001
160800,61.71429000000001
160833,62.06896999999999
160867,62.06896999999999
160900,62.06896999999999
160933,62.06896999999999
160967,62.06896999999999
161000,62.06896999999999
161033,62.06896999999999
161067,62.06896999999999
161100,62.06896999999999
161133,62.06896999999999
161167,62.06896999999999
161200,62.06896999999999
161233,62.06896999999999
161267,62.06896999999999
161300,62.06896999999999
161333,62.06896999999999
161367,62.06896999999999
161400,62.06896999999999
161433,62.06896999999999
161467,62.06896999999999
161500,62.06896999999999
161533,62.06896999999999
161567,62.06896999999999
161600,62.06896999999999
161633,62.06896999999999
161667,62.06896999999999
161700,62.06896999999999
161733,62.06896999999999
161767,62.37624
161800,62.37624
161833,62.37624
161867,63.905330000000006
161900,63.905330000000006
161933,63.905330000000006
161967,63.905330000000006
162000,63.905330000000006
162033,63.905330000000006
162067,63.905330000000006
162100,63.905330000000006
162133,63.905330000000006
162167,63.905330000000006
162200,63.905330000000006
162233,63.905330000000006
162267,63.905330000000006
162300,63.905330000000006
162333,63.905330000000006
162367,63.905330000000006
162400,63.905330000000006
162433,63.905330000000006
162467,63.905330000000006
162500,63.905330000000006
162533,63.905330000000006
162567,63.905330000000006
162600,63.905330000000006
162633,64.61539
162667,64.61539
162700,64.61539
162733,64.61539
162767,64.61539
162800,64.61539
162833,64.61539
162867,64.61539
162900,64.61539
162933,64.61539
162967,65.06024000000001
163000,65.06024000000001
163033,65.06024000000001
163067,65.45454000000001
163100,65.45454000000001
163133,65.45454000000001
163167,65.45454000000001
163200,65.45454000000001
163233,65.45454000000001
163267,65.45454000000001
163300,65.45454000000001
163333,65.45454000000001
163367,65.45454000000001
163400,65.45454000000001
163433,65.45454000000001
163467,65.45454000000001
163500,65.45454000000001
163533,65.28497
163567,65.28497
163600,65.28497
163633,65.28497
163667,65.28497
163700,65.28497
163733,65.28497
163767,65.28497
163800,65.28497
163833,65.28497
163867,65.28497
163900,65.28497
163933,65.45454000000001
163967,65.45454000000001
164000,65.45454000000001
164033,65.45454000000001
164067,65.45454000000001
164100,65.45454000000001
164133,65.45454000000001
164167,65.45454000000001
164200,65.45454000000001
164233,65.45454000000001
164267,65.45454000000001
164300,65.45454000000001
164333,65.45454000000001
164367,65.45454000000001
164400,65.45454000000001
164433,65.45454000000001
164467,65.45454000000001
164500,65.45454000000001
164533,65.45454000000001
164567,65.45454000000001
164600,65.45454000000001
164633,65.45454000000001
164667,63.31658
164700,63.31658
164733,63.31658
164767,63.31658
164800,63.31658
164833,63.31658
164867,63.905330000000006
164900,63.905330000000006
164933,63.905330000000006
164967,63.905330000000006
165000,63.905330000000006
165033,63.905330000000006
165067,63.905330000000006
165100,63.905330000000006
165133,63.905330000000006
165167,63.905330000000006
165200,63.905330000000006
165233,63.905330000000006
165267,63.905330000000006
165300,63.905330000000006
165333,63.905330000000006
165367,63.905330000000006
165400,63.905330000000006
165433,63.905330000000006
165467,63.905330000000006
165500,63.905330000000006
165533,63.905330000000006
165567,63.905330000000006
165600,63.905330000000006
165633,63.905330000000006
165667,63.905330000000006
165700,63.905330000000006
165733,63.905330000000006
165767,62.37624
165800,62.06896999999999
165833,62.06896999999999
165867,60.67416
165900,60.67416
165933,60.67416
165967,60.67416
166000,60.67416
166033,60.67416
166067,60.67416
166100,60.67416
166133,60.67416
166167,60.67416
166200,60.67416
166233,60.67416
166267,60.67416
166300,60.67416
166333,60.67416
166367,60.67416
166400,60.67416
166433,60.67416
166467,60.67416
166500,60.67416
166533,60.67416
166567,60.67416
166600,60.67416
166633,60.67416
166667,60.81081
166700,60.81081
166733,60.81081
166767,60.81081
166800,60.81081
166833,60.0
166867,60.0
166900,60.0
166933,60.0
166967,60.0
167000,60.0
167033,60.0
167067,60.0
167100,60.0
167133,60.0
167167,60.0
167200,60.0
167233,60.0
167267,60.0
167300,60.0
167333,60.0
167367,60.0
167400,60.0
167433,60.0
167467,60.0
167500,60.0
167533,60.0
167567,60.0
167600,60.0
167633,60.0
167667,59.21053000000001
167700,59.21053000000001
167733,59.21053000000001
167767,59.21053000000001
167800,59.66851
167833,59.66851
167867,59.66851
167900,59.66851
167933,59.66851
167967,59.66851
168000,59.66851
168033,59.66851
168067,59.66851
168100,59.66851
168133,59.66851
168167,59.66851
168200,59.66851
168233,59.66851
168267,59.66851
168300,59.66851
168333,59.66851
168367,59.66851
168400,59.66851
168433,59.66851
168467,59.66851
168500,59.66851
168533,59.66851
168567,59.66851
168600,57.69231
168633,57.69231
168667,57.69231
168700,59.01639
168733,59.01639
168767,59.01639
168800,59.01639
168833,59.01639
168867,59.01639
168900,59.01639
168933,59.01639
168967,59.01639
169000,59.01639
169033,59.01639
169067,59.01639
169100,59.01639
169133,59.01639
169167,59.01639
169200,59.01639
169233,59.01639
169267,59.01639
169300,59.01639
169333,59.01639
169367,59.01639
169400,59.01639
169433,58.06452
169467,58.06452
169500,58.06452
169533,58.06452
169567,59.66851
169600,59.66851
169633,59.66851
169667,59.66851
169700,59.66851
169733,59.66851
169767,59.66851
169800,59.66851
169833,59.66851
169867,59.66851
169900,60.0
169933,60.0
169967,60.0
170000,60.0
170033,60.0
170067,60.0
170100,60.0
170133,60.0
170167,60.0
170200,60.0
170233,60.0
170267,60.0
170300,60.0
170333,60.0
170367,61.64384
170400,61.64384
170433,62.42775
170467,62.42775
170500,62.42775
170533,62.42775
170567,62.42775
170600,62.42775
170633,62.42775
170667,62.42775
170700,62.42775
170733,62.42775
170767,62.42775
170800,62.42775
170833,62.42775
170867,62.42775
170900,62.42775
170933,62.42775
170967,62.42775
171000,62.42775
171033,62.42775
171067,62.42775
171100,62.42775
171133,62.42775
171167,62.42775
171200,62.42775
171233,62.42775
171267,62.42775
171300,62.42775
171333,62.42775
171367,62.42775
171400,62.42775
171433,62.42775
171467,62.42775
171500,62.7907
171533,62.7907
171567,62.7907
171600,62.7907
171633,62.7907
171667,62.7907
171700,62.7907
171733,62.7907
171767,62.7907
171800,62.7907
171833,62.7907
171867,62.7907
171900,62.7907
171933,62.7907
171967,62.7907
172000,62.7907
172033,62.7907
172067,62.7907
172100,62.7907
172133,62.7907
172167,62.7907
172200,62.7907
172233,62.7907
172267,62.7907
172300,62.7907
172333,62.7907
172367,62.7907
172400,62.7907
172433,62.7907
172467,62.7907
172500,62.37624
172533,62.37624
172567,62.37624
172600,63.52941
172633,63.52941
172667,63.52941
172700,63.52941
172733,63.52941
172767,63.52941
172800,63.52941
172833,63.52941
172867,63.52941
172900,63.52941
172933,63.52941
172967,63.52941
173000,63.52941
173033,63.52941
173067,63.52941
173100,63.52941
173133,63.52941
173167,63.52941
173200,63.52941
173233,63.52941
173267,63.52941
173300,63.52941
173333,63.52941
173367,63.52941
173400,63.95939
173433,63.95939
173467,63.95939
173500,63.95939
173533,63.95939
173567,63.95939
173600,63.95939
173633,64.28571
173667,64.28571
173700,64.28571
173733,64.28571
173767,64.28571
173800,64.28571
173833,64.28571
173867,64.28571
173900,64.28571
173933,64.28571
173967,64.28571
174000,64.28571
174033,64.28571
174067,64.28571
174100,64.28571
174133,64.28571
174167,64.28571
174200,64.28571
174233,64.28571
174267,64.28571
174300,64.28571
174333,64.28571
174367,64.28571
174400,64.28571
174433,64.28571
174467,64.28571
174500,62.68657
174533,62.68657
174567,62.68657
174600,62.68657
174633,62.06896999999999
174667,62.06896999999999
174700,62.06896999999999
174733,62.06896999999999
174767,62.06896999999999
174800,62.06896999999999
174833,62.06896999999999
174867,62.06896999999999
174900,62.06896999999999
174933,62.06896999999999
174967,62.06896999999999
175000,62.06896999999999
175033,62.06896999999999
175067,62.06896999999999
175100,62.06896999999999
175133,62.06896999999999
175167,62.06896999999999
175200,62.06896999999999
175233,62.06896999999999
175267,62.06896999999999
175300,62.06896999999999
175333,62.06896999999999
175367,62.06896999999999
175400,62.06896999999999
175433,62.06896999999999
175467,62.06896999999999
175500,62.06896999999999
175533,60.40268
175567,60.40268
175600,59.34066
175633,59.34066
175667,59.34066
175700,59.34066
175733,59.34066
175767,59.34066
175800,59.34066
175833,59.01639
175867,59.01639
175900,59.01639
175933,59.01639
175967,59.01639
176000,59.01639
176033,59.01639
176067,59.01639
176100,59.01639
176133,59.01639
176167,59.01639
176200,59.01639
176233,59.01639
176267,59.01639
176300,59.01639
176333,59.01639
176367,57.69231
176400,57.69231
176433,57.69231
176467,57.69231
176500,57.69231
176533,57.69231
176567,57.69231
176600,57.69231
176633,58.06452
176667,58.06452
176700,58.06452
176733,58.06452
176767,58.06452
176800,58.06452
176833,58.06452
176867,58.06452
176900,58.06452
176933,58.06452
176967,58.06452
177000,58.06452
177033,58.06452
177066,58.06452
177100,58.06452
177133,58.06452
177166,58.06452
177200,58.06452
177233,58.06452
177266,58.06452
177300,58.06452
177333,58.06452
177366,58.06452
177400,58.06452
177433,58.06452
177466,58.06452
177500,58.06452
177533,58.06452
177566,58.06452
177600,58.06452
177633,58.06452
177666,58.06452
177700,58.06452
177733,58.06452
177766,58.06452
177800,58.06452
177833,58.06452
177866,58.06452
177900,58.06452
177933,58.06452
177966,58.06452
178000,58.06452
178033,58.06452
178066,58.06452
178100,58.06452
178133,58.06452
178166,58.06452
178200,58.06452
178233,58.06452
178266,58.06452
178300,58.06452
178333,58.06452
178366,58.06452
178400,58.06452
178433,58.06452
178466,58.06452
178500,58.06452
178533,58.06452
178566,58.06452
178600,58.06452
178633,58.06452
178666,58.06452
178700,58.06452
178733,58.06452
178766,58.06452
178800,58.06452
178833,58.06452
178866,58.06452
178900,58.06452
178933,58.06452
178966,58.06452
179000,58.06452
179033,58.06452
179066,58.06452
179100,58.06452
179133,58.06452
179166,58.06452
179200,58.06452
179233,58.06452
179266,58.06452
179300,58.06452
179333,58.06452
179366,58.06452
179400,58.06452
179433,58.06452
179466,58.06452
179500,58.06452
179533,58.06452
179566,58.06452
179600,58.06452
179633,58.06452
179666,58.06452
179700,58.06452
179733,58.06452
179766,58.06452
179800,58.06452
179833,58.06452
179866,58.06452
179900,58.06452
179933,58.06452
179966,58.06452
180000,58.06452
180033,58.06452
180066,58.06452
180100,58.06452
180133,58.06452
180166,58.06452
180200,58.06452
180233,58.06452
180266,58.06452
180300,58.06452
180333,58.06452
180366,58.06452
180400,58.06452
180433,58.06452
180466,58.06452
180500,58.06452
180533,58.06452
180566,58.06452
180600,58.06452
180633,58.06452
180666,58.06452
180700,58.06452
180733,58.06452
180766,58.06452
180800,58.06452
180833,58.06452
180866,58.06452
180900,58.06452
180933,58.06452
180966,58.06452
181000,58.06452
181033,58.06452
181066,58.06452
181100,58.06452
181133,58.06452
181166,58.06452
181200,58.06452
181233,58.06452
181266,58.06452
181300,58.06452
181333,58.06452
181366,58.06452
181400,58.06452
181433,58.06452
181466,58.06452
181500,58.06452
181533,58.06452
181566,58.06452
181600,58.06452
181633,58.06452
181666,58.06452
181700,58.06452
181733,58.06452
181766,58.06452
181800,58.06452
181833,58.06452
181866,58.06452
181900,58.06452
181933,58.06452
181966,58.06452
182000,58.06452
182033,58.06452
182066,58.06452
182100,58.06452
182133,58.06452
182166,58.06452
182200,58.06452
182233,58.06452
182266,58.06452
182300,58.06452
182333,58.06452
182366,58.06452
182400,58.06452
182433,58.06452
182466,58.06452
182500,58.06452
182533,58.06452
182566,58.06452
182600,58.06452
182633,58.06452
182666,58.06452
182700,58.06452
182733,58.06452
182766,58.06452
182800,58.06452
182833,58.06452
182866,58.06452
182900,58.06452
182933,58.06452
182966,58.06452
183000,58.06452
183033,58.06452
183066,58.06452
183100,58.06452
183133,58.06452
183166,58.06452
183200,58.06452
183233,58.06452
183266,58.06452
183300,58.06452
183333,58.06452
183366,58.06452
183400,58.06452
183433,58.06452
183466,58.06452
183500,58.06452
183533,58.06452
183566,58.06452
183600,58.06452
183633,58.06452
183666,58.06452
183700,58.06452
183733,58.06452
183766,58.06452
183800,58.06452
183833,58.06452
183866,58.06452
