Time[ms],HR[bpm]
833,78.68852
867,77.77778
900,77.83784
933,77.83784
967,77.83784
1000,77.83784
1033,77.83784
1067,77.83784
1100,77.83784
1133,77.83784
1167,77.83784
1200,77.83784
1233,77.83784
1267,77.83784
1300,77.83784
1333,77.83784
1367,77.83784
1400,77.83784
1433,77.83784
1467,77.83784
1500,77.83784
1533,77.83784
1567,75.0
1600,75.0
1633,75.0
1667,75.0
1700,75.0
1733,75.0
1767,75.0
1800,75.0
1833,75.0
1867,75.0
1900,75.0
1933,75.0
1967,75.0
2000,75.0
2033,75.0
2067,75.0
2100,75.0
2133,73.25581
2167,73.25581
2200,73.25581
2233,73.25581
2267,73.25581
2300,73.25581
2333,73.25581
2367,73.25581
2400,73.25581
2433,73.25581
2467,73.25581
2500,73.25581
2533,73.25581
2567,72.72726999999998
2600,72.72726999999998
2633,72.72726999999998
2667,72.72726999999998
2700,72.72726999999998
2733,72.72726999999998
2767,72.72726999999998
2800,72.83237
2833,72.83237
2867,72.83237
2900,72.83237
2933,72.83237
2967,72.83237
3000,72.83237
3033,72.83237
3067,72.83237
3100,72.83237
3133,72.83237
3167,72.83237
3200,72.83237
3233,72.83237
3267,72.83237
3300,72.83237
3333,72.83237
3367,73.09644
3400,73.09644
3433,73.09644
3467,73.09644
3500,73.09644
3533,73.09644
3567,73.09644
3600,73.09644
3633,70.0
3667,70.0
3700,70.0
3733,70.0
3767,70.0
3800,70.0
3833,70.0
3867,70.0
3900,70.0
3933,70.0
3967,70.0
4000,70.0
4033,70.0
4067,70.0
4100,70.0
4133,70.0
4167,70.0
4200,76.05634
4233,76.05634
4267,76.05634
4300,76.05634
4333,76.05634
4367,73.25581
4400,73.25581
4433,73.25581
4467,73.25581
4500,73.25581
4533,73.25581
4567,72.83237
4600,72.83237
4633,72.83237
4667,72.83237
4700,72.83237
4733,72.83237
4767,72.83237
4800,72.83237
4833,72.83237
4867,72.83237
4900,72.83237
4933,73.25581
4967,73.25581
5000,73.25581
5033,73.25581
5067,73.25581
5100,73.25581
5133,73.25581
5167,73.25581
5200,73.09644
5233,73.09644
5267,73.09644
5300,73.09644
5333,73.09644
5367,73.09644
5400,73.09644
5433,73.09644
5467,72.83237
5500,72.83237
5533,72.83237
5567,72.83237
5600,72.83237
5633,72.83237
5667,72.83237
5700,72.83237
5733,72.83237
5767,72.83237
5800,72.83237
5833,72.83237
5867,72.83237
5900,74.22681
5933,74.22681
5967,74.22681
6000,74.22681
6033,74.22681
6067,74.22681
6100,74.22681
6133,74.22681
6167,74.22681
6200,74.22681
6233,74.22681
6267,72.83237
6300,72.83237
6333,72.83237
6367,72.83237
6400,72.83237
6433,72.83237
6467,72.83237
6500,72.83237
6533,75.0
6567,75.0
6600,75.0
6633,75.0
6667,75.0
6700,75.0
6733,75.0
6767,75.0
6800,75.0
6833,75.0
6867,75.0
6900,75.0
6933,75.0
6967,74.55621
7000,74.55621
7033,74.55621
7067,74.55621
7100,77.41936
7133,77.41936
7167,77.41936
7200,77.41936
7233,77.41936
7267,77.41936
7300,77.41936
7333,77.41936
7367,77.41936
7400,77.41936
7433,77.41936
7467,77.41936
7500,77.41936
7533,77.41936
7567,77.41936
7600,77.41936
7633,77.41936
7667,77.41936
7700,77.41936
7733,80.0
7767,80.0
7800,80.0
7833,80.0
7867,80.0
7900,80.0
7933,80.0
7967,80.0
8000,80.0
8033,80.0
8067,80.0
8100,80.0
8133,80.0
8167,80.0
8200,80.0
8233,80.0
8267,80.0
8300,80.0
8333,80.0
8367,80.0
8400,81.0
8433,81.0
8467,81.0
8500,81.0
8533,81.0
8567,82.28571
8600,82.28571
8633,82.28571
8667,82.28571
8700,82.28571
8733,82.28571
8767,82.28571
8800,82.28571
8833,82.28571
8867,82.28571
8900,82.28571
8933,82.28571
8967,82.28571
9000,82.28571
9033,82.28571
9067,82.28571
9100,82.65306
9133,82.65306
9167,82.65306
9200,82.65306
9233,82.65306
9267,82.65306
9300,82.65306
9333,82.65306
9367,82.65306
9400,83.72093000000002
9433,83.72093000000002
9467,83.72093000000002
9500,83.72093000000002
9533,83.72093000000002
9567,83.72093000000002
9600,83.72093000000002
9633,83.72093000000002
9667,83.72093000000002
9700,83.72093000000002
9733,83.72093000000002
9767,83.72093000000002
9800,85.26316
9833,85.26316
9867,85.26316
9900,85.26316
9933,85.26316
9967,85.26316
10000,85.26316
10033,85.26316
10067,85.26316
10100,85.26316
10133,85.26316
10167,85.26316
10200,90.0
10233,90.0
10267,91.52542
10300,91.52542
10333,91.52542
10367,91.52542
10400,91.52542
10433,91.52542
10467,91.52542
10500,91.52542
10533,91.52542
10567,91.52542
10600,91.52542
10633,91.52542
10667,91.52542
10700,91.52542
10733,91.52542
10767,91.52542
10800,91.52542
10833,91.52542
10867,91.52542
10900,91.52542
10933,91.52542
10967,90.90909
11000,90.90909
11033,90.90909
11067,90.90909
11100,90.90909
11133,90.90909
11167,90.90909
11200,93.64162
11233,93.64162
11267,93.10345
11300,93.10345
11333,93.10345
11367,93.10345
11400,93.10345
11433,93.10345
11467,93.10345
11500,93.10345
11533,93.10345
11567,93.10345
11600,93.10345
11633,93.10345
11667,92.78351
11700,92.78351
11733,92.78351
11767,92.78351
11800,92.78351
11833,92.78351
11867,92.78351
11900,92.78351
11933,92.78351
11967,92.78351
12000,92.78351
12033,93.64162
12067,93.64162
12100,93.64162
12133,93.64162
12167,93.64162
12200,93.64162
12233,93.64162
12267,93.64162
12300,93.75
12333,93.75
12367,93.75
12400,93.75
12433,93.75
12467,93.75
12500,93.75
12533,93.75
12567,93.75
12600,93.75
12633,93.75
12667,93.75
12700,93.75
12733,93.10345
12767,93.10345
12800,93.10345
12833,93.10345
12867,93.10345
12900,93.10345
12933,93.10345
12967,92.78351
13000,92.78351
13033,92.78351
13067,92.78351
13100,92.78351
13133,92.78351
13167,92.78351
13200,92.78351
13233,92.78351
13267,92.78351
13300,92.78351
13333,92.04546
13367,92.04546
13400,92.04546
13433,92.04546
13467,92.04546
13500,92.04546
13533,92.04546
13567,92.04546
13600,92.04546
13633,92.04546
13667,92.04546
13700,90.90909
13733,90.90909
13767,90.90909
13800,90.90909
13833,90.90909
13867,90.90909
13900,90.90909
13933,90.50279
13967,90.50279
14000,90.50279
14033,90.50279
14067,90.50279
14100,90.50279
14133,90.50279
14167,90.50279
14200,90.50279
14233,90.50279
14267,90.50279
14300,90.50279
14333,90.50279
14367,90.45226
14400,90.45226
14433,90.45226
14467,90.45226
14500,90.45226
14533,90.45226
14567,90.50279
14600,90.50279
14633,90.50279
14667,90.50279
14700,90.50279
14733,90.50279
14767,90.50279
14800,90.50279
14833,90.50279
14867,90.50279
14900,90.50279
14933,90.50279
14967,90.50279
15000,90.50279
15033,90.50279
15067,90.0
15100,90.0
15133,90.0
15167,90.0
15200,90.0
15233,90.50279
15267,90.50279
15300,90.50279
15333,90.50279
15367,90.50279
15400,90.50279
15433,90.50279
15467,90.50279
15500,90.50279
15533,90.50279
15567,90.50279
15600,90.50279
15633,90.50279
15667,90.50279
15700,90.50279
15733,90.50279
15767,90.0
15800,90.0
15833,90.0
15867,90.0
15900,90.0
15933,89.01099
15967,89.01099
16000,89.01099
16033,89.01099
16067,89.01099
16100,89.01099
16133,89.01099
16167,89.01099
16200,89.01099
16233,89.01099
16267,89.01099
16300,89.01099
16333,89.01099
16367,89.01099
16400,89.01099
16433,89.01099
16467,89.01099
16500,89.01099
16533,87.80488000000004
16567,87.80488000000004
16600,88.04348
16633,88.04348
16667,88.04348
16700,88.04348
16733,88.04348
16767,88.04348
16800,88.04348
16833,88.04348
16867,88.04348
16900,88.04348
16933,88.04348
16967,88.04348
17000,88.04348
17033,88.04348
17067,88.66995
17100,88.66995
17133,89.01099
17167,89.01099
17200,89.01099
17233,89.01099
17267,89.01099
17300,89.01099
17333,89.01099
17367,89.01099
17400,89.01099
17433,89.01099
17467,89.01099
17500,89.01099
17533,89.01099
17567,89.01099
17600,89.01099
17633,89.01099
17667,89.01099
17700,89.01099
17733,89.01099
17767,88.66995
17800,88.66995
17833,89.01099
17867,89.01099
17900,89.01099
17933,89.01099
17967,89.01099
18000,89.01099
18033,89.01099
18067,89.01099
18100,89.50276
18133,89.50276
18167,89.50276
18200,89.50276
18233,89.50276
18267,89.50276
18300,89.50276
18333,89.50276
18367,89.50276
18400,89.50276
18433,89.01099
18467,89.01099
18500,90.0
18533,89.50276
18567,89.50276
18600,89.50276
18633,89.50276
18667,89.50276
18700,89.50276
18733,89.50276
18767,89.50276
18800,89.50276
18833,89.50276
18867,89.50276
18900,89.50276
18933,89.50276
18967,89.50276
19000,90.0
19033,90.0
19067,90.0
19100,90.0
19133,90.0
19167,90.0
19200,90.0
19233,90.0
19267,90.0
19300,90.0
19333,90.0
19367,90.0
19400,90.0
19433,90.0
19467,90.0
19500,90.0
19533,90.0
19567,90.0
19600,90.0
19633,90.0
19667,90.0
19700,89.55224
19733,89.55224
19767,89.55224
19800,89.55224
19833,90.0
19867,90.0
19900,90.0
19933,90.0
19967,90.0
20000,90.0
20033,90.0
20067,90.0
20100,90.0
20133,90.0
20167,90.0
20200,90.0
20233,90.0
20267,90.0
20300,90.0
20333,90.0
20367,90.0
20400,90.0
20433,90.0
20467,90.0
20500,90.0
20533,90.50279
20567,90.50279
20600,90.50279
20633,90.50279
20667,90.50279
20700,90.50279
20733,90.50279
20767,90.50279
20800,90.50279
20833,90.50279
20867,90.50279
20900,90.50279
20933,90.50279
20967,91.37056
21000,91.37056
21033,91.37056
21067,91.37056
21100,91.37056
21133,91.37056
21167,91.37056
21200,91.37056
21233,91.52542
21267,91.52542
21300,91.52542
21333,91.52542
21367,91.52542
21400,91.52542
21433,91.52542
21467,91.52542
21500,91.52542
21533,91.52542
21567,91.52542
21600,91.52542
21633,91.52542
21667,90.90909
21700,90.90909
21733,90.90909
21767,90.90909
21800,90.90909
21833,90.90909
21867,90.90909
21900,91.52542
21933,91.52542
21967,91.52542
22000,91.52542
22033,91.52542
22067,91.52542
22100,91.52542
22133,91.52542
22167,91.52542
22200,91.52542
22233,91.52542
22267,91.52542
22300,91.52542
22333,91.37056
22367,91.37056
22400,91.37056
22433,91.37056
22467,91.37056
22500,91.37056
22533,91.37056
22567,91.37056
22600,92.04546
22633,92.04546
22667,92.04546
22700,92.04546
22733,92.04546
22767,92.04546
22800,92.04546
22833,92.04546
22867,92.04546
22900,92.04546
22933,92.04546
22967,92.30769
23000,92.30769
23033,92.30769
23067,92.30769
23100,92.30769
23133,91.83673
23167,91.83673
23200,91.83673
23233,91.83673
23267,91.52542
23300,91.52542
23333,91.52542
23367,91.52542
23400,91.52542
23433,91.52542
23467,91.52542
23500,91.52542
23533,91.52542
23567,91.52542
23600,91.52542
23633,91.52542
23667,91.52542
23700,90.45226
23733,90.45226
23767,90.45226
23800,90.45226
23833,90.45226
23867,90.45226
23900,91.01124
23933,91.01124
23967,91.01124
24000,91.01124
24033,91.01124
24067,91.01124
24100,91.01124
24133,91.01124
24167,91.01124
24200,91.01124
24233,91.01124
24267,91.01124
24300,91.01124
24333,91.01124
24367,91.01124
24400,90.45226
24433,90.45226
24467,90.45226
24500,90.45226
24533,90.45226
24567,89.50276
24600,89.50276
24633,89.50276
24667,89.50276
24700,89.50276
24733,89.50276
24767,89.50276
24800,89.50276
24833,89.50276
24867,89.50276
24900,89.50276
24933,89.50276
24967,89.50276
25000,89.50276
25033,89.50276
25067,89.55224
25100,89.55224
25133,89.55224
25167,89.55224
25200,88.52459
25233,88.52459
25267,88.52459
25300,88.52459
25333,88.52459
25367,88.52459
25400,88.52459
25433,88.52459
25467,88.52459
25500,88.52459
25533,88.52459
25567,88.52459
25600,88.52459
25633,88.52459
25667,88.52459
25700,88.52459
25733,88.66995
25767,88.66995
25800,89.01099
25833,89.01099
25867,89.01099
25900,89.01099
25933,89.01099
25967,89.01099
26000,89.01099
26033,89.01099
26067,89.01099
26100,89.01099
26133,89.01099
26167,89.01099
26200,89.01099
26233,89.01099
26267,89.01099
26300,89.01099
26333,89.01099
26367,89.01099
26400,89.01099
26433,88.66995
26467,88.66995
26500,88.52459
26533,88.52459
26567,88.52459
26600,88.52459
26633,88.52459
26667,88.52459
26700,88.52459
26733,88.52459
26767,88.52459
26800,88.52459
26833,88.52459
26867,88.52459
26900,88.52459
26933,88.52459
26967,88.52459
27000,88.52459
27033,88.52459
27067,89.10891
27100,89.10891
27133,89.10891
27167,88.04348
27200,88.04348
27233,88.04348
27267,88.04348
27300,88.04348
27333,88.04348
27367,88.04348
27400,88.04348
27433,88.04348
27467,88.04348
27500,88.04348
27533,88.04348
27567,88.04348
27600,88.04348
27633,88.04348
27667,88.04348
27700,88.04348
27733,88.23529
27767,88.52459
27800,88.52459
27833,88.52459
27867,88.52459
27900,88.52459
27933,88.52459
27967,88.52459
28000,88.52459
28033,88.52459
28067,88.52459
28100,88.52459
28133,88.52459
28167,88.52459
28200,88.52459
28233,88.52459
28267,88.52459
28300,88.52459
28333,88.52459
28367,88.52459
28400,88.52459
28433,88.52459
28467,87.09676999999998
28500,87.09676999999998
28533,87.09676999999998
28567,87.09676999999998
28600,87.09676999999998
28633,87.09676999999998
28667,87.09676999999998
28700,87.09676999999998
28733,87.09676999999998
28767,87.09676999999998
28800,87.09676999999998
28833,87.09676999999998
28867,87.09676999999998
28900,87.09676999999998
28933,87.09676999999998
28967,87.09676999999998
29000,87.09676999999998
29033,87.09676999999998
29067,87.09676999999998
29100,88.04348
29133,88.04348
29167,88.04348
29200,88.04348
29233,88.04348
29267,88.04348
29300,88.04348
29333,88.04348
29367,88.04348
29400,88.04348
29433,88.04348
29467,88.04348
29500,88.04348
29533,88.04348
29567,88.04348
29600,88.04348
29633,88.04348
29667,88.04348
29700,88.04348
29733,88.04348
29767,88.23529
29800,89.01099
29833,89.01099
29867,89.01099
29900,89.01099
29933,89.01099
29967,89.01099
30000,89.01099
30033,89.01099
30067,89.01099
30100,89.01099
30133,89.01099
30167,89.01099
30200,89.01099
30233,89.01099
30267,89.01099
30300,89.01099
30333,89.01099
30367,89.01099
30400,89.01099
30433,89.01099
30467,88.66995
30500,88.66995
30533,89.01099
30567,89.01099
30600,89.01099
30633,89.01099
30667,89.01099
30700,89.01099
30733,89.01099
30767,89.01099
30800,89.01099
30833,89.01099
30867,89.01099
30900,89.01099
30933,89.01099
30967,89.01099
31000,89.01099
31033,89.01099
31067,89.01099
31100,89.55224
31133,89.55224
31167,89.55224
31200,89.55224
31233,89.50276
31267,89.50276
31300,90.0
31333,90.0
31367,90.0
31400,90.0
31433,90.0
31467,90.0
31500,90.0
31533,90.0
31567,90.0
31600,90.0
31633,90.0
31667,90.0
31700,90.90909
31733,90.90909
31767,90.90909
31800,90.90909
31833,90.90909
31867,90.90909
31900,90.90909
31933,91.01124
31967,91.01124
32000,91.01124
32033,91.01124
32067,91.01124
32100,91.01124
32133,91.01124
32167,91.01124
32200,91.01124
32233,91.01124
32267,91.01124
32300,91.01124
32333,91.37056
32367,91.37056
32400,91.37056
32433,91.37056
32467,91.37056
32500,91.37056
32533,91.37056
32567,91.37056
32600,92.04546
32633,92.04546
32667,92.04546
32700,92.04546
32733,92.04546
32767,92.04546
32800,92.04546
32833,92.04546
32867,92.04546
32900,92.04546
32933,92.04546
32967,92.04546
33000,92.04546
33033,91.37056
33067,91.37056
33100,91.37056
33133,91.37056
33167,91.37056
33200,91.37056
33233,91.37056
33267,91.37056
33300,91.01124
33333,91.01124
33367,91.01124
33400,91.01124
33433,91.01124
33467,91.01124
33500,91.01124
33533,91.01124
33567,91.01124
33600,91.01124
33633,91.01124
33667,91.01124
33700,91.01124
33733,90.45226
33767,90.45226
33800,90.45226
33833,90.45226
33867,90.45226
33900,90.45226
33933,90.50279
33967,90.50279
34000,90.50279
34033,90.50279
34067,90.50279
34100,90.50279
34133,90.50279
34167,90.50279
34200,90.50279
34233,90.50279
34267,90.50279
34300,90.50279
34333,90.50279
34367,90.90909
34400,90.90909
34433,90.90909
34467,90.90909
34500,90.90909
34533,90.45226
34567,90.45226
34600,91.01124
34633,91.01124
34667,91.01124
34700,91.01124
34733,91.01124
34767,91.01124
34800,91.01124
34833,91.01124
34867,91.01124
34900,91.01124
34933,91.01124
34967,91.01124
35000,91.01124
35033,91.37056
35067,91.37056
35100,91.37056
35133,91.37056
35167,91.37056
35200,91.37056
35233,91.37056
35267,91.37056
35300,91.01124
35333,91.01124
35367,91.01124
35400,91.01124
35433,91.01124
35467,91.01124
35500,91.01124
35533,91.01124
35567,91.01124
35600,91.01124
35633,91.01124
35667,91.01124
35700,91.01124
35733,90.45226
35767,90.45226
35800,90.45226
35833,90.45226
35867,90.45226
35900,90.45226
35933,90.50279
35967,90.50279
36000,90.50279
36033,90.50279
36067,90.50279
36100,90.50279
36133,90.50279
36167,90.50279
36200,90.50279
36233,90.50279
36267,90.50279
36300,90.50279
36333,91.37056
36367,91.37056
36400,91.37056
36433,91.37056
36467,91.37056
36500,91.37056
36533,91.37056
36567,91.37056
36600,92.04546
36633,92.04546
36667,92.04546
36700,92.04546
36733,92.04546
36767,92.04546
36800,92.04546
36833,92.04546
36867,92.04546
36900,92.04546
36933,92.04546
36967,92.30769
37000,92.30769
37033,92.30769
37067,92.30769
37100,92.30769
37133,92.30769
37167,92.30769
37200,92.30769
37233,92.30769
37267,92.30769
37300,92.04546
37333,92.04546
37367,92.04546
37400,92.04546
37433,92.04546
37467,91.52542
37500,91.52542
37533,91.52542
37567,91.52542
37600,91.52542
37633,91.83673
37667,91.83673
37700,91.83673
37733,91.83673
37767,91.83673
37800,91.83673
37833,91.83673
37867,91.83673
37900,91.83673
37933,90.50279
37967,90.50279
38000,90.50279
38033,90.50279
38067,90.50279
38100,90.50279
38133,90.50279
38167,90.50279
38200,90.50279
38233,91.37056
38267,91.37056
38300,91.37056
38333,91.37056
38367,91.37056
38400,91.37056
38433,91.37056
38467,91.83673
38500,91.52542
38533,91.52542
38567,91.52542
38600,91.52542
38633,91.52542
38667,91.52542
38700,91.52542
38733,91.52542
38767,91.52542
38800,91.52542
38833,91.52542
38867,91.52542
38900,91.37056
38933,91.37056
38967,91.37056
39000,91.37056
39033,91.37056
39067,91.37056
39100,91.37056
39133,91.37056
39167,92.04546
39200,92.04546
39233,92.04546
39267,92.04546
39300,92.04546
39333,92.04546
39367,92.04546
39400,92.04546
39433,92.04546
39467,92.04546
39500,92.04546
39533,92.04546
39567,91.83673
39600,91.83673
39633,91.83673
39667,91.83673
39700,91.83673
39733,91.83673
39767,91.83673
39800,91.83673
39833,91.83673
39867,92.57143
39900,92.57143
39933,92.57143
39967,92.57143
40000,92.57143
40033,92.57143
40067,92.57143
40100,92.57143
40133,92.57143
40167,93.26425
40200,93.26425
40233,93.26425
40267,93.26425
40300,93.26425
40333,93.26425
40367,93.26425
40400,93.26425
40433,93.26425
40467,93.26425
40500,93.26425
40533,93.26425
40567,93.64162
40600,93.64162
40633,93.64162
40667,93.64162
40700,93.64162
40733,93.64162
40767,93.64162
40800,93.75
40833,93.75
40867,93.75
40900,93.75
40933,93.75
40967,93.75
41000,93.75
41033,93.75
41067,93.75
41100,93.75
41133,93.75
41167,93.75
41200,93.75
41233,93.64162
41267,93.64162
41300,93.64162
41333,93.64162
41367,93.64162
41400,93.64162
41433,95.74468
41467,95.74468
41500,95.74468
41533,95.74468
41567,95.74468
41600,95.74468
41633,96.25668
41667,96.25668
41700,96.25668
41733,96.25668
41767,96.25668
41800,96.25668
41833,96.25668
41867,97.05882
41900,97.82609
41933,97.82609
41967,97.82609
42000,97.82609
42033,97.82609
42067,97.82609
42100,97.82609
42133,97.82609
42167,97.82609
42200,97.82609
42233,97.82609
42267,97.82609
42300,97.82609
42333,97.82609
42367,97.82609
42400,97.82609
42433,97.82609
42467,97.82609
42500,97.53695
42533,97.53695
42567,97.82609
42600,97.82609
42633,97.82609
42667,97.82609
42700,97.82609
42733,97.82609
42767,97.82609
42800,97.82609
42833,97.82609
42867,97.82609
42900,97.82609
42933,97.82609
42967,97.82609
43000,97.82609
43033,97.82609
43067,97.82609
43100,97.82609
43133,97.53695
43167,97.53695
43200,97.82609
43233,97.82609
43267,97.82609
43300,97.82609
43333,97.82609
43367,97.82609
43400,97.82609
43433,97.82609
43467,97.82609
43500,97.82609
43533,97.82609
43567,97.82609
43600,97.82609
43633,97.82609
43667,97.82609
43700,97.82609
43733,97.82609
43767,97.82609
43800,97.82609
43833,97.29729
43867,97.29729
43900,97.29729
43933,97.29729
43967,97.29729
44000,97.29729
44033,97.29729
44067,97.29729
44100,97.29729
44133,97.29729
44167,97.29729
44200,97.29729
44233,97.29729
44267,97.29729
44300,97.29729
44333,97.29729
44367,97.29729
44400,97.29729
44433,97.29729
44467,97.05882
44500,96.77419
44533,96.77419
44567,96.77419
44600,96.77419
44633,96.77419
44667,96.77419
44700,96.77419
44733,96.77419
44767,96.77419
44800,96.77419
44833,96.77419
44867,96.77419
44900,96.77419
44933,96.77419
44967,96.77419
45000,96.77419
45033,96.77419
45067,96.77419
45100,96.77419
45133,96.77419
45167,96.77419
45200,96.77419
45233,96.77419
45267,96.77419
45300,96.77419
45333,96.77419
45367,96.77419
45400,96.77419
45433,96.77419
45467,96.77419
45500,96.77419
45533,96.77419
45567,96.77419
45600,96.77419
45633,96.77419
45667,96.77419
45700,96.77419
45733,97.59036
45767,97.59036
45800,96.77419
45833,96.77419
45867,96.77419
45900,96.77419
45933,96.77419
45967,96.77419
46000,96.77419
46033,96.77419
46067,96.77419
46100,96.77419
46133,96.77419
46167,96.77419
46200,96.77419
46233,96.77419
46267,96.77419
46300,96.77419
46333,96.77419
46367,96.77419
46400,96.42857
46433,96.42857
46467,96.42857
46500,96.42857
46533,94.24084
46567,94.24084
46600,94.24084
46633,94.24084
46667,94.24084
46700,94.24084
46733,94.24084
46767,94.24084
46800,94.24084
46833,94.24084
46867,94.24084
46900,94.24084
46933,94.24084
46967,94.24084
47000,93.64162
47033,93.64162
47067,93.64162
47100,93.64162
47133,93.64162
47167,93.64162
47200,94.18604
47233,94.18604
47267,92.30769
47300,92.30769
47333,92.30769
47367,92.30769
47400,92.30769
47433,92.30769
47467,92.30769
47500,92.30769
47533,92.30769
47567,92.30769
47600,90.50279
47633,90.50279
47667,90.50279
47700,90.50279
47733,90.50279
47767,90.50279
47800,90.50279
47833,90.50279
47867,90.50279
47900,90.90909
47933,90.90909
47967,90.90909
48000,90.90909
48033,90.90909
48067,90.90909
48100,90.90909
48133,89.50276
48167,89.50276
48200,89.50276
48233,89.50276
48267,89.50276
48300,89.50276
48333,89.50276
48367,89.50276
48400,89.50276
48433,89.50276
48467,89.50276
48500,89.50276
48533,89.50276
48567,89.55224
48600,89.55224
48633,89.55224
48667,89.55224
48700,89.01099
48733,89.01099
48767,89.01099
48800,89.01099
48833,89.01099
48867,89.01099
48900,89.01099
48933,89.01099
48967,89.01099
49000,89.01099
49033,89.01099
49067,89.01099
49100,89.01099
49133,89.01099
49167,88.52459
49200,89.10891
49233,89.10891
49267,89.10891
49300,89.01099
49333,89.01099
49367,88.52459
49400,88.52459
49433,88.52459
49467,88.52459
49500,88.52459
49533,88.52459
49567,88.52459
49600,88.52459
49633,88.52459
49667,88.52459
49700,88.52459
49733,88.52459
49767,88.52459
49800,88.52459
49833,89.10891
49867,89.10891
49900,89.10891
49933,89.50276
49967,89.50276
50000,89.50276
50033,89.50276
50067,89.50276
50100,89.50276
50133,89.50276
50167,89.50276
50200,89.50276
50233,89.50276
50267,89.50276
50300,89.50276
50333,89.50276
50367,89.50276
50400,89.50276
50433,89.50276
50467,90.0
50500,90.0
50533,90.0
50567,90.0
50600,90.0
50633,89.50276
50667,89.50276
50700,89.50276
50733,89.50276
50767,89.50276
50800,89.50276
50833,89.50276
50867,89.50276
50900,89.50276
50933,89.50276
50967,89.50276
51000,89.50276
51033,89.50276
51067,89.50276
51100,90.0
51133,90.0
51167,90.0
51200,90.0
51233,90.0
51267,89.50276
51300,89.50276
51333,89.50276
51367,89.50276
51400,89.50276
51433,89.50276
51467,89.50276
51500,89.50276
51533,89.50276
51567,89.50276
51600,89.50276
51633,89.50276
51667,89.50276
51700,89.50276
51733,89.50276
51767,89.50276
51800,89.10891
51833,89.10891
51867,89.10891
51900,89.01099
51933,89.01099
51967,89.01099
52000,89.01099
52033,89.01099
52067,89.01099
52100,89.01099
52133,89.01099
52167,89.01099
52200,89.01099
52233,89.01099
52267,89.01099
52300,89.01099
52333,89.01099
52367,89.01099
52400,89.01099
52433,89.01099
52467,89.10891
52500,89.10891
52533,89.10891
52567,90.0
52600,90.0
52633,90.0
52667,90.0
52700,90.0
52733,90.0
52767,90.0
52800,90.0
52833,90.0
52867,90.0
52900,90.0
52933,90.0
52967,90.0
53000,90.0
53033,90.0
53067,90.0
53100,90.0
53133,90.0
53167,89.55224
53200,89.55224
53233,89.55224
53267,89.55224
53300,91.01124
53333,91.01124
53367,91.01124
53400,91.01124
53433,91.01124
53467,91.01124
53500,91.01124
53533,91.01124
53567,91.01124
53600,91.01124
53633,91.01124
53667,91.01124
53700,91.01124
53733,91.01124
53767,91.01124
53800,91.01124
53833,91.01124
53867,90.45226
53900,90.45226
53933,90.45226
53967,90.45226
54000,90.45226
54033,90.45226
54067,91.01124
54100,91.01124
54133,91.01124
54167,91.01124
54200,91.01124
54233,91.01124
54267,91.01124
54300,91.01124
54333,91.01124
54367,91.01124
54400,91.01124
54433,91.01124
54467,91.01124
54500,91.37056
54533,91.37056
54567,91.37056
54600,91.37056
54633,91.37056
54667,91.37056
54700,91.37056
54733,91.37056
54767,91.01124
54800,91.01124
54833,91.01124
54867,91.01124
54900,91.01124
54933,90.50279
54967,90.50279
55000,90.50279
55033,90.50279
55067,90.50279
55100,90.50279
55133,90.50279
55167,90.90909
55200,90.90909
55233,90.90909
55267,90.90909
55300,90.90909
55333,90.90909
55367,90.90909
55400,90.50279
55433,90.50279
55467,90.50279
55500,90.50279
55533,90.50279
55567,90.50279
55600,90.50279
55633,90.50279
55667,90.50279
55700,90.50279
55733,90.50279
55767,91.37056
55800,91.37056
55833,91.37056
55867,91.37056
55900,91.37056
55933,91.37056
55967,91.37056
56000,91.37056
56033,91.01124
56067,91.01124
56100,91.01124
56133,91.01124
56167,91.01124
56200,91.01124
56233,91.01124
56267,91.01124
56300,91.01124
56333,91.01124
56367,91.01124
56400,91.01124
56433,91.01124
56467,90.45226
56500,90.45226
56533,90.45226
56567,90.45226
56600,90.45226
56633,90.45226
56667,90.0
56700,90.0
56733,90.0
56767,90.0
56800,90.0
56833,90.0
56867,90.0
56900,90.0
56933,90.0
56967,90.0
57000,90.0
57033,90.0
57067,90.0
57100,90.45226
57133,90.45226
57167,90.45226
57200,90.45226
57233,90.45226
57267,90.45226
57300,90.50279
57333,90.50279
57367,90.50279
57400,90.50279
57433,90.50279
57467,90.50279
57500,90.50279
57533,90.50279
57567,90.50279
57600,90.50279
57633,90.50279
57667,90.50279
57700,90.50279
57733,90.50279
57767,90.45226
57800,90.45226
57833,90.45226
57867,90.45226
57900,90.45226
57933,90.45226
57967,90.50279
58000,90.50279
58033,90.50279
58067,90.50279
58100,90.50279
58133,90.50279
58167,90.50279
58200,90.50279
58233,90.50279
58267,90.50279
58300,90.50279
58333,90.50279
58367,90.50279
58400,90.50279
58433,90.50279
58467,90.0
58500,90.0
58533,90.0
58567,90.0
58600,90.0
58633,90.0
58667,90.0
58700,90.0
58733,90.0
58767,90.0
58800,90.0
58833,90.0
58867,90.0
58900,90.0
58933,90.0
58967,90.0
59000,90.0
59033,90.0
59067,90.0
59100,90.0
59133,90.0
59167,90.0
59200,90.0
59233,90.0
59267,90.0
59300,91.01124
59333,91.01124
59367,91.01124
59400,91.01124
59433,91.01124
59467,91.01124
59500,91.01124
59533,91.01124
59567,91.01124
59600,91.01124
59633,91.01124
59667,91.01124
59700,91.01124
59733,91.01124
59767,91.01124
59800,90.90909
59833,90.90909
59867,90.90909
59900,90.90909
59933,90.90909
59967,90.90909
60000,90.90909
60033,91.01124
60067,91.01124
60100,91.01124
60133,91.01124
60167,91.01124
60200,91.01124
60233,91.01124
60267,91.01124
60300,91.01124
60333,91.01124
60367,91.01124
60400,91.01124
60433,91.01124
60467,91.01124
60500,90.45226
60533,90.45226
60567,90.45226
60600,90.45226
60633,90.45226
60667,90.45226
60700,90.50279
60733,90.50279
60767,90.50279
60800,90.50279
60833,90.50279
60867,90.50279
60900,90.50279
60933,90.50279
60967,90.50279
61000,90.50279
61033,90.50279
61067,90.50279
61100,91.37056
61133,91.37056
61167,91.37056
61200,91.37056
61233,91.37056
61267,91.37056
61300,91.37056
61333,91.37056
61367,91.01124
61400,91.01124
61433,91.01124
61467,91.01124
61500,91.01124
61533,91.01124
61567,91.01124
61600,91.01124
61633,91.01124
61667,91.01124
61700,91.01124
61733,91.01124
61767,91.01124
61800,90.45226
61833,90.45226
61867,90.45226
61900,90.45226
61933,90.45226
61967,90.45226
62000,89.50276
62033,89.50276
62067,89.50276
62100,89.50276
62133,89.50276
62167,89.50276
62200,89.50276
62233,89.50276
62267,89.50276
62300,89.50276
62333,89.50276
62367,89.50276
62400,89.50276
62433,89.50276
62467,89.50276
62500,89.10891
62533,89.10891
62567,89.10891
62600,89.50276
62633,89.50276
62667,89.50276
62700,89.50276
62733,89.50276
62767,89.50276
62800,89.50276
62833,89.50276
62867,89.50276
62900,89.50276
62933,89.50276
62967,89.50276
63000,89.50276
63033,89.50276
63067,89.50276
63100,90.45226
63133,90.45226
63167,90.45226
63200,90.45226
63233,90.45226
63267,90.45226
63300,90.0
63333,90.0
63367,90.0
63400,90.0
63433,90.0
63467,90.0
63500,90.0
63533,90.0
63567,90.0
63600,90.0
63633,90.0
63667,90.0
63700,90.0
63733,90.45226
63767,90.45226
63800,90.45226
63833,90.45226
63867,90.45226
63900,90.45226
63933,90.50279
63967,90.50279
64000,90.50279
64033,90.50279
64067,90.50279
64100,90.50279
64133,90.50279
64167,90.50279
64200,90.50279
64233,90.50279
64267,90.50279
64300,90.50279
64333,90.50279
64367,90.50279
64400,90.50279
64433,90.0
64467,90.0
64500,90.0
64533,90.0
64567,90.0
64600,90.50279
64633,90.50279
64667,90.50279
64700,90.50279
64733,90.50279
64767,90.50279
64800,90.50279
64833,90.50279
64867,90.50279
64900,90.50279
64933,90.50279
64967,90.50279
65000,90.50279
65033,90.50279
65067,90.50279
65100,90.45226
65133,90.45226
65167,90.45226
65200,90.45226
65233,90.45226
65267,90.45226
65300,90.50279
65333,90.50279
65367,90.50279
65400,90.50279
65433,90.50279
65467,90.50279
65500,90.50279
65533,90.50279
65567,90.50279
65600,90.50279
65633,90.50279
65667,90.50279
65700,90.50279
65733,90.50279
65767,90.45226
65800,90.45226
65833,90.45226
65867,90.45226
65900,90.45226
65933,90.45226
65967,90.50279
66000,90.50279
66033,90.50279
66067,90.50279
66100,90.50279
66133,90.50279
66167,90.50279
66200,90.50279
66233,90.50279
66267,90.50279
66300,90.50279
66333,90.50279
66367,90.50279
66400,90.50279
66433,90.50279
66467,90.0
66500,90.0
66533,90.0
66567,90.0
66600,90.0
66633,90.50279
66667,90.50279
66700,90.50279
66733,90.50279
66767,90.50279
66800,90.50279
66833,90.50279
66867,90.50279
66900,90.50279
66933,90.50279
66967,90.50279
67000,90.50279
67033,90.50279
67067,90.50279
67100,90.90909
67133,90.90909
67167,90.90909
67200,90.90909
67233,90.90909
67267,90.90909
67300,90.90909
67333,90.0
67367,90.0
67400,90.0
67433,90.0
67467,90.0
67500,90.0
67533,90.0
67567,90.0
67600,90.0
67633,90.0
67667,90.0
67700,90.0
67733,90.0
67767,90.0
67800,90.0
67833,90.0
67867,90.0
67900,90.0
67933,90.50279
67967,90.50279
68000,90.50279
68033,90.50279
68067,90.50279
68100,90.50279
68133,90.50279
68167,90.50279
68200,90.50279
68233,90.50279
68267,90.50279
68300,90.50279
68333,90.0
68367,90.0
68400,90.0
68433,90.0
68467,90.0
68500,90.0
68533,89.55224
68567,89.55224
68600,89.55224
68633,90.0
68667,90.0
68700,90.0
68733,90.0
68767,90.0
68800,90.0
68833,90.0
68867,90.0
68900,90.0
68933,90.0
68967,90.0
69000,90.0
69033,90.0
69067,90.0
69100,90.0
69133,90.45226
69167,90.45226
69200,90.45226
69233,90.45226
69267,90.45226
69300,90.45226
69333,89.01099
69367,89.01099
69400,89.01099
69433,89.01099
69467,89.01099
69500,89.01099
69533,89.01099
69567,89.01099
69600,89.50276
69633,89.50276
69667,89.50276
69700,89.50276
69733,89.50276
69767,89.50276
69800,89.55224
69833,89.55224
69867,89.55224
69900,89.55224
69933,89.01099
69967,89.01099
70000,89.01099
70033,89.01099
70067,89.01099
70100,89.01099
70133,89.01099
70167,89.01099
70200,89.01099
70233,89.01099
70267,89.01099
70300,89.01099
70333,89.01099
70367,89.01099
70400,89.01099
70433,89.01099
70467,89.10891
70500,89.10891
70533,89.10891
70567,89.50276
70600,89.50276
70633,89.50276
70667,89.50276
70700,89.50276
70733,89.50276
70767,89.50276
70800,89.50276
70833,89.50276
70867,89.50276
70900,89.50276
70933,89.50276
70967,89.50276
71000,89.50276
71033,89.50276
71067,89.50276
71100,90.0
71133,90.0
71167,90.0
71200,90.0
71233,90.0
71267,90.0
71300,90.0
71333,90.0
71367,90.0
71400,90.0
71433,90.0
71467,90.0
71500,90.0
71533,90.0
71567,90.0
71600,90.0
71633,90.0
71667,90.0
71700,90.0
71733,90.0
71767,90.0
71800,90.0
71833,90.0
71867,90.0
71900,90.0
71933,90.50279
71967,90.50279
72000,90.50279
72033,90.50279
72067,90.50279
72100,90.50279
72133,90.50279
72167,90.50279
72200,90.50279
72233,90.50279
72267,90.50279
72300,90.50279
72333,90.50279
72367,90.50279
72400,90.50279
72433,90.50279
72467,90.0
72500,90.0
72533,89.55224
72567,89.55224
72600,89.55224
72633,89.50276
72667,89.50276
72700,89.50276
72733,89.50276
72767,89.50276
72800,89.50276
72833,89.50276
72867,89.50276
72900,89.50276
72933,89.50276
72967,89.50276
73000,89.50276
73033,89.50276
73067,89.50276
73100,89.50276
73133,90.0
73167,90.0
73200,90.0
73233,90.0
73267,90.0
73300,90.0
73333,90.0
73367,90.0
73400,90.0
73433,90.0
73467,90.0
73500,90.0
73533,90.0
73567,90.0
73600,90.0
73633,90.0
73667,90.0
73700,90.0
73733,90.0
73767,90.0
73800,90.0
73833,89.55224
73867,89.55224
73900,89.55224
73933,89.55224
73967,89.50276
74000,89.50276
74033,89.50276
74067,89.50276
74100,89.50276
74133,89.50276
74167,89.50276
74200,89.50276
74233,89.50276
74267,89.50276
74300,89.50276
74333,89.50276
74367,89.50276
74400,89.50276
74433,89.50276
74467,89.50276
74500,89.50276
74533,89.10891
74567,89.10891
74600,89.10891
74633,89.50276
74667,89.50276
74700,89.50276
74733,89.50276
74767,89.50276
74800,89.50276
74833,89.50276
74867,89.50276
74900,89.50276
74933,89.50276
74967,89.50276
75000,89.50276
75033,89.50276
75067,89.50276
75100,89.50276
75133,89.50276
75167,89.50276
75200,89.55224
75233,89.55224
75267,89.55224
75300,89.55224
75333,89.01099
75367,89.01099
75400,89.01099
75433,89.01099
75467,89.01099
75500,89.01099
75533,89.01099
75567,89.01099
75600,89.01099
75633,89.01099
75667,89.01099
75700,89.01099
75733,89.01099
75767,89.01099
75800,89.01099
75833,89.55224
75867,89.55224
75900,89.55224
75933,89.55224
75967,89.50276
76000,89.50276
76033,89.50276
76067,89.50276
76100,89.50276
76133,89.50276
76167,89.50276
76200,89.50276
76233,89.50276
76267,89.50276
76300,89.50276
76333,89.50276
76367,89.50276
76400,89.50276
76433,89.50276
76467,89.50276
76500,89.55224
76533,89.55224
76567,89.55224
76600,89.55224
76633,89.50276
76667,89.50276
76700,89.50276
76733,89.50276
76767,89.50276
76800,89.50276
76833,89.50276
76867,89.50276
76900,89.50276
76933,89.50276
76967,89.50276
77000,89.50276
77033,89.50276
77067,89.50276
77100,90.45226
77133,90.45226
77167,90.45226
77200,90.45226
77233,90.45226
77267,90.45226
77300,90.0
77333,90.0
77367,90.0
77400,90.0
77433,90.0
77467,90.0
77500,90.0
77533,90.0
77567,90.0
77600,90.0
77633,90.0
77667,90.0
77700,90.0
77733,90.0
77767,90.0
77800,90.0
77833,90.0
77867,90.0
77900,90.0
77933,90.0
77967,90.0
78000,90.0
78033,90.0
78067,90.0
78100,90.0
78133,90.0
78167,90.0
78200,90.0
78233,90.0
78267,90.0
78300,90.0
78333,90.0
78367,90.0
78400,90.0
78433,90.0
78467,90.0
78500,90.0
78533,90.0
78567,90.0
78600,90.50279
78633,90.50279
78667,90.50279
78700,90.50279
78733,90.50279
78767,90.50279
78800,90.50279
78833,90.50279
78867,90.50279
78900,90.50279
78933,90.50279
78967,90.50279
79000,90.50279
79033,91.37056
79067,91.37056
79100,91.37056
79133,91.37056
79167,91.37056
79200,91.37056
79233,91.37056
79267,91.37056
79300,91.52542
79333,91.52542
79367,91.52542
79400,91.52542
79433,91.52542
79467,91.52542
79500,91.52542
79533,91.52542
79567,91.52542
79600,91.52542
79633,91.52542
79667,91.52542
79700,91.37056
79733,91.37056
79767,91.37056
79800,91.37056
79833,90.90909
79867,90.90909
79900,90.90909
79933,90.90909
79967,91.52542
80000,91.52542
80033,91.52542
80067,91.52542
80100,91.52542
80133,91.52542
80167,91.52542
80200,91.52542
80233,91.52542
80267,91.52542
80300,91.52542
80333,91.52542
80367,91.52542
80400,91.37056
80433,91.37056
80467,91.37056
80500,91.37056
80533,91.37056
80567,91.37056
80600,91.37056
80633,91.37056
80667,92.04546
80700,92.04546
80733,92.04546
80767,92.04546
80800,92.04546
80833,92.04546
80867,92.04546
80900,92.04546
80933,92.04546
80967,92.04546
81000,92.04546
81033,92.04546
81067,91.83673
81100,91.83673
81133,91.83673
81167,91.83673
81200,91.83673
81233,91.83673
81267,91.83673
81300,91.83673
81333,91.83673
81367,92.04546
81400,92.04546
81433,92.04546
81467,92.04546
81500,92.04546
81533,92.04546
81567,92.04546
81600,92.04546
81633,92.04546
81667,92.04546
81700,92.04546
81733,91.83673
81767,91.83673
81800,91.83673
81833,91.83673
81867,91.83673
81900,91.83673
81933,91.83673
81967,91.83673
82000,91.83673
82033,92.04546
82067,92.04546
82100,92.04546
82133,92.04546
82167,92.04546
82200,91.52542
82233,91.52542
82267,91.52542
82300,91.52542
82333,91.52542
82367,91.83673
82400,91.83673
82433,91.83673
82467,91.83673
82500,91.83673
82533,91.83673
82567,91.83673
82600,92.30769
82633,92.30769
82667,92.57143
82700,92.57143
82733,92.57143
82767,92.57143
82800,92.57143
82833,92.57143
82867,92.57143
82900,92.57143
82933,92.57143
82967,92.78351
83000,92.78351
83033,92.78351
83067,92.78351
83100,92.78351
83133,92.78351
83167,92.78351
83200,92.78351
83233,92.78351
83267,92.78351
83300,92.78351
83333,92.04546
83367,92.04546
83400,92.04546
83433,92.04546
83467,92.04546
83500,92.04546
83533,92.04546
83567,92.04546
83600,92.04546
83633,91.83673
83667,91.83673
83700,91.83673
83733,91.83673
83767,91.83673
83800,91.83673
83833,91.83673
83867,91.83673
83900,91.83673
83933,92.04546
83967,92.04546
84000,92.04546
84033,92.04546
84067,92.04546
84100,92.04546
84133,92.04546
84167,92.04546
84200,92.04546
84233,92.04546
84267,92.30769
84300,92.30769
84333,92.30769
84367,92.30769
84400,92.30769
84433,92.30769
84467,92.30769
84500,92.30769
84533,92.30769
84567,92.30769
84600,92.57143
84633,92.57143
84667,92.57143
84700,92.57143
84733,92.57143
84767,92.57143
84800,92.57143
84833,92.57143
84867,92.57143
84900,92.57143
84933,92.30769
84967,92.30769
85000,92.30769
85033,91.83673
85067,91.83673
85100,91.83673
85133,91.83673
85167,91.83673
85200,91.83673
85233,91.52542
85267,91.52542
85300,91.52542
85333,91.52542
85367,91.52542
85400,91.52542
85433,91.52542
85467,91.52542
85500,91.52542
85533,91.52542
85567,91.52542
85600,91.52542
85633,91.52542
85667,90.45226
85700,90.45226
85733,90.45226
85767,90.45226
85800,90.45226
85833,90.45226
85867,90.50279
85900,90.50279
85933,90.50279
85967,90.50279
86000,90.50279
86033,90.50279
86067,90.50279
86100,90.50279
86133,90.50279
86167,90.50279
86200,90.50279
86233,90.50279
86267,90.50279
86300,90.50279
86333,90.50279
86367,90.0
86400,90.0
86433,90.0
86467,90.0
86500,90.0
86533,90.50279
86567,90.50279
86600,90.50279
86633,90.50279
86667,90.50279
86700,90.50279
86733,90.50279
86767,90.50279
86800,90.50279
86833,90.50279
86867,90.50279
86900,90.50279
86933,90.50279
86967,90.50279
87000,90.50279
87033,90.45226
87067,90.45226
87100,90.45226
87133,90.45226
87167,90.45226
87200,90.45226
87233,90.50279
87267,90.50279
87300,90.50279
87333,90.50279
87367,90.50279
87400,90.50279
87433,90.50279
87467,90.50279
87500,90.50279
87533,90.50279
87567,90.50279
87600,90.50279
87633,90.50279
87667,90.50279
87700,90.45226
87733,90.45226
87767,90.45226
87800,90.0
87833,90.0
87867,90.50279
87900,90.50279
87933,90.50279
87967,90.50279
88000,90.50279
88033,90.50279
88067,90.50279
88100,90.50279
88133,90.50279
88167,90.50279
88200,90.50279
88233,90.50279
88267,90.50279
88300,90.50279
88333,90.90909
88367,90.90909
88400,90.90909
88433,90.90909
88467,90.45226
88500,90.45226
88533,90.45226
88567,89.50276
88600,89.50276
88633,89.50276
88667,89.50276
88700,89.50276
88733,89.50276
88767,89.50276
88800,89.50276
88833,89.50276
88867,89.50276
88900,89.50276
88933,89.50276
88967,89.50276
89000,89.50276
89033,89.55224
89067,89.55224
89100,89.55224
89133,89.55224
89167,89.01099
89200,89.01099
89233,89.01099
89267,89.01099
89300,89.01099
89333,89.01099
89367,89.01099
89400,89.01099
89433,89.01099
89467,89.01099
89500,89.01099
89533,89.01099
89567,89.01099
89600,89.01099
89633,89.01099
89667,89.01099
89700,89.01099
89733,88.66995
89767,88.66995
89800,88.52459
89833,88.52459
89867,88.52459
89900,88.52459
89933,88.52459
89967,88.52459
90000,88.52459
90033,88.52459
90067,88.52459
90100,88.52459
90133,88.52459
90167,88.52459
90200,88.52459
90233,88.52459
90267,88.52459
90300,88.52459
90333,88.52459
90367,88.52459
90400,88.66995
90433,88.66995
90467,88.04348
90500,88.04348
90533,88.04348
90567,88.04348
90600,88.04348
90633,88.04348
90667,88.04348
90700,88.04348
90733,88.04348
90767,88.04348
90800,88.04348
90833,88.04348
90867,88.04348
90900,88.04348
90933,88.04348
90967,88.04348
91000,88.04348
91033,88.04348
91067,88.23529
91100,88.04348
91133,88.04348
91167,88.04348
91200,88.04348
91233,88.04348
91267,88.04348
91300,88.04348
91333,88.04348
91367,88.04348
91400,88.04348
91433,88.04348
91467,88.04348
91500,88.04348
91533,88.04348
91567,88.04348
91600,88.04348
91633,88.04348
91667,88.04348
91700,88.04348
91733,88.04348
91767,88.52459
91800,88.52459
91833,88.52459
91867,88.52459
91900,88.52459
91933,88.52459
91967,88.52459
92000,88.52459
92033,88.52459
92067,88.52459
92100,88.52459
92133,88.52459
92167,88.52459
92200,88.52459
92233,88.52459
92267,88.52459
92300,88.52459
92333,88.52459
92367,88.52459
92400,89.10891
92433,89.10891
92467,89.10891
92500,89.50276
92533,89.50276
92567,89.50276
92600,89.50276
92633,89.50276
92667,89.50276
92700,89.50276
92733,89.50276
92767,89.50276
92800,89.50276
92833,89.50276
92867,89.50276
92900,89.50276
92933,89.50276
92967,90.90909
93000,90.90909
93033,90.90909
93067,90.90909
93100,90.45226
93133,90.45226
93167,90.45226
93200,90.50279
93233,90.50279
93267,90.50279
93300,90.50279
93333,90.50279
93367,90.50279
93400,90.50279
93433,90.50279
93467,90.50279
93500,90.50279
93533,90.50279
93567,91.01124
93600,91.01124
93633,91.01124
93667,90.45226
93700,90.45226
93733,90.45226
93767,90.45226
93800,90.45226
93833,90.45226
93867,90.50279
93900,90.50279
93933,90.50279
93967,90.50279
94000,90.50279
94033,90.50279
94067,90.50279
94100,90.50279
94133,90.50279
94167,90.50279
94200,90.50279
94233,90.50279
94267,90.50279
94300,90.50279
94333,90.45226
94367,90.45226
94400,90.45226
94433,90.45226
94467,90.45226
94500,90.45226
94533,90.0
94567,90.0
94600,90.0
94633,90.0
94667,90.0
94700,90.0
94733,90.0
94767,90.0
94800,90.0
94833,90.0
94867,90.0
94900,90.0
94933,90.0
94967,90.45226
95000,90.45226
95033,90.45226
95067,90.45226
95100,90.45226
95133,90.45226
95167,91.01124
95200,91.01124
95233,91.01124
95267,91.01124
95300,91.01124
95333,91.01124
95367,91.01124
95400,91.01124
95433,91.01124
95467,91.01124
95500,91.01124
95533,91.01124
95567,91.01124
95600,91.01124
95633,91.01124
95667,91.01124
95700,90.0
95733,90.0
95767,90.0
95800,90.0
95833,90.0
95867,90.50279
95900,90.50279
95933,90.50279
95967,90.50279
96000,90.50279
96033,90.50279
96067,90.50279
96100,90.50279
96133,90.50279
96167,90.50279
96200,90.50279
96233,90.50279
96267,90.50279
96300,91.37056
96333,91.37056
96367,91.37056
96400,91.37056
96433,91.37056
96467,91.37056
96500,91.37056
96533,91.37056
96567,91.52542
96600,91.52542
96633,91.52542
96667,91.52542
96700,91.52542
96733,91.52542
96767,91.52542
96800,91.52542
96833,91.52542
96867,91.52542
96900,91.52542
96933,91.83673
96967,91.83673
97000,91.37056
97033,91.37056
97067,91.37056
97100,91.37056
97133,91.37056
97167,91.37056
97200,91.52542
97233,91.52542
97267,91.52542
97300,91.52542
97333,91.52542
97367,91.52542
97400,91.52542
97433,91.52542
97467,91.52542
97500,91.52542
97533,91.52542
97567,91.52542
97600,91.37056
97633,91.37056
97667,91.37056
97700,91.37056
97733,91.37056
97767,91.37056
97800,91.37056
97833,91.37056
97867,92.04546
97900,92.04546
97933,92.04546
97967,92.04546
98000,92.04546
98033,92.04546
98067,92.04546
98100,92.04546
98133,92.04546
98167,92.04546
98200,92.04546
98233,92.30769
98267,92.30769
98300,92.30769
98333,92.30769
98367,92.30769
98400,92.30769
98433,92.30769
98467,92.30769
98500,92.30769
98533,92.30769
98567,92.57143
98600,92.57143
98633,92.57143
98667,92.57143
98700,92.57143
98733,92.57143
98767,92.57143
98800,92.57143
98833,92.57143
98867,92.57143
98900,92.57143
98933,91.83673
98967,91.83673
99000,91.83673
99033,91.83673
99067,91.83673
99100,91.83673
99133,91.83673
99167,91.83673
99200,91.83673
99233,90.50279
99267,90.50279
99300,90.50279
99333,90.50279
99367,90.50279
99400,90.50279
99433,90.50279
99467,90.50279
99500,90.50279
99533,90.50279
99567,90.50279
99600,90.50279
99633,90.0
99667,90.0
99700,90.0
99733,90.0
99767,90.0
99800,90.0
99833,90.0
99867,90.0
99900,90.0
99933,90.0
99967,90.0
100000,90.0
100033,90.0
100067,90.0
100100,90.0
100133,90.0
100167,90.0
100200,90.0
100233,90.0
100267,90.0
100300,90.0
100333,89.55224
100367,89.55224
100400,89.55224
100433,89.55224
100467,89.50276
100500,89.50276
100533,89.50276
100567,89.50276
100600,89.50276
100633,89.50276
100667,89.50276
100700,89.50276
100733,89.50276
100767,89.50276
100800,89.50276
100833,89.50276
100867,89.50276
100900,89.50276
100933,90.45226
100967,90.45226
101000,90.45226
101033,90.45226
101067,90.45226
101100,90.45226
101133,90.50279
101167,90.50279
101200,90.50279
101233,90.50279
101267,90.50279
101300,90.50279
101333,90.50279
101367,90.50279
101400,90.50279
101433,90.50279
101467,90.50279
101500,90.50279
101533,90.50279
101567,90.90909
101600,90.90909
101633,90.90909
101667,90.90909
101700,90.90909
101733,90.90909
101767,90.90909
101800,92.04546
101833,92.04546
101867,92.04546
101900,92.04546
101933,92.04546
101967,92.04546
102000,92.04546
102033,92.04546
102067,92.04546
102100,92.04546
102133,92.04546
102167,92.04546
102200,92.04546
102233,92.04546
102267,91.37056
102300,91.37056
102333,91.37056
102367,91.37056
102400,91.37056
102433,91.37056
102467,91.37056
102500,91.37056
102533,90.0
102567,90.0
102600,90.0
102633,90.0
102667,90.0
102700,90.0
102733,90.0
102767,90.0
102800,90.0
102833,90.0
102867,90.0
102900,90.0
102933,91.37056
102967,91.37056
103000,91.37056
103033,91.37056
103067,91.37056
103100,91.01124
103133,91.01124
103167,91.01124
103200,91.01124
103233,91.01124
103267,91.01124
103300,91.01124
103333,91.01124
103367,91.01124
103400,91.01124
103433,91.01124
103467,91.01124
103500,91.37056
103533,91.37056
103567,91.37056
103600,91.37056
103633,91.37056
103667,91.37056
103700,91.37056
103733,91.37056
103767,91.52542
103800,91.52542
103833,91.52542
103867,91.52542
103900,91.52542
103933,91.52542
103967,91.52542
104000,91.52542
104033,91.52542
104067,91.52542
104100,91.52542
104133,91.52542
104167,91.52542
104200,90.90909
104233,90.90909
104267,90.90909
104300,90.45226
104333,90.45226
104367,90.45226
104400,90.45226
104433,90.0
104467,90.0
104500,90.0
104533,90.0
104567,90.0
104600,90.0
104633,90.0
104667,90.0
104700,90.0
104733,90.0
104767,90.0
104800,90.0
104833,90.0
104867,90.0
104900,90.0
104933,90.0
104967,90.0
105000,90.0
105033,90.0
105067,90.50279
105100,90.50279
105133,90.50279
105167,90.50279
105200,90.50279
105233,90.50279
105267,90.50279
105300,90.50279
105333,90.50279
105367,90.50279
105400,90.50279
105433,90.50279
105467,90.50279
105500,90.50279
105533,90.50279
105567,90.45226
105600,90.45226
105633,90.45226
105667,90.45226
105700,90.45226
105733,90.45226
105767,91.01124
105800,91.01124
105833,91.01124
105867,91.01124
105900,91.01124
105933,91.01124
105967,91.01124
106000,91.01124
106033,91.01124
106067,91.01124
106100,91.01124
106133,91.01124
106167,91.01124
106200,91.01124
106233,91.01124
106267,90.45226
106300,90.45226
106333,90.45226
106367,90.45226
106400,90.45226
106433,90.45226
106467,91.01124
106500,91.01124
106533,91.01124
106567,91.01124
106600,91.01124
106633,91.01124
106667,91.01124
106700,91.01124
106733,91.01124
106767,91.01124
106800,91.01124
106833,91.01124
106867,91.01124
106900,91.01124
106933,91.01124
106967,90.45226
107000,90.45226
107033,90.45226
107067,90.45226
107100,90.45226
107133,90.45226
107167,89.50276
107200,89.50276
107233,89.50276
107267,89.50276
107300,89.50276
107333,89.50276
107367,89.50276
107400,89.50276
107433,89.50276
107467,89.50276
107500,89.50276
107533,89.50276
107567,89.50276
107600,89.50276
107633,89.55224
107667,89.10891
107700,89.10891
107733,89.10891
107767,89.01099
107800,89.01099
107833,89.01099
107867,89.01099
107900,89.01099
107933,89.01099
107967,89.01099
108000,89.01099
108033,89.01099
108067,89.01099
108100,89.01099
108133,89.01099
108167,89.01099
108200,89.01099
108233,89.01099
108267,89.01099
108300,89.01099
108333,89.10891
108367,89.10891
108400,89.10891
108433,89.01099
108467,89.01099
108500,89.01099
108533,89.01099
108567,89.01099
108600,89.01099
108633,89.01099
108667,89.01099
108700,89.01099
108733,89.01099
108767,89.01099
108800,89.01099
108833,89.01099
108867,89.01099
108900,89.01099
108933,89.01099
108967,89.01099
109000,89.10891
109033,89.10891
109067,89.10891
109100,88.04348
109133,88.04348
109167,88.04348
109200,88.04348
109233,88.04348
109267,88.04348
109300,88.04348
109333,88.04348
109367,88.04348
109400,88.04348
109433,88.04348
109467,88.04348
109500,88.04348
109533,88.04348
109567,88.04348
109600,89.10891
109633,88.66995
109667,88.66995
109700,88.04348
109733,88.04348
109767,88.04348
109800,88.04348
109833,88.04348
109867,88.04348
109900,88.04348
109933,88.04348
109967,88.04348
110000,88.04348
110033,88.04348
110067,88.04348
110100,88.04348
110133,88.04348
110167,88.04348
110200,88.04348
110233,88.04348
110267,88.04348
110300,88.04348
110333,88.04348
110367,88.04348
110400,88.04348
110433,88.04348
110467,88.04348
110500,88.04348
110533,88.04348
110567,88.04348
110600,88.04348
110633,88.04348
110667,88.04348
110700,88.04348
110733,88.04348
110767,88.04348
110800,88.04348
110833,88.04348
110867,88.04348
110900,88.04348
110933,88.04348
110967,88.04348
111000,88.04348
111033,88.52459
111067,88.04348
111100,88.04348
111133,88.52459
111167,88.52459
111200,88.52459
111233,88.52459
111267,88.52459
111300,88.52459
111333,88.52459
111367,88.52459
111400,88.52459
111433,88.52459
111467,88.52459
111500,88.52459
111533,88.52459
111567,88.52459
111600,89.55224
111633,89.55224
111667,89.55224
111700,89.55224
111733,89.50276
111767,89.50276
111800,89.50276
111833,89.50276
111867,89.50276
111900,89.50276
111933,89.50276
111967,89.50276
112000,89.50276
112033,89.50276
112067,89.50276
112100,89.50276
112133,89.50276
112167,89.50276
112200,89.50276
112233,89.50276
112267,89.50276
112300,89.10891
112333,89.10891
112367,89.10891
112400,89.50276
112433,89.50276
112467,89.50276
112500,89.50276
112533,89.50276
112567,89.50276
112600,89.50276
112633,89.50276
112667,89.50276
112700,89.50276
112733,89.50276
112767,89.50276
112800,89.50276
112833,89.50276
112867,89.50276
112900,89.50276
112933,89.50276
112967,89.55224
113000,89.55224
113033,89.55224
113067,89.55224
113100,90.0
113133,90.0
113167,90.0
113200,90.0
113233,90.0
113267,90.0
113300,90.0
113333,90.0
113367,90.0
113400,90.0
113433,90.0
113467,90.0
113500,90.0
113533,90.0
113567,90.0
113600,90.45226
113633,90.45226
113667,90.45226
113700,90.45226
113733,90.45226
113767,90.45226
113800,91.01124
113833,91.01124
113867,91.01124
113900,91.01124
113933,91.01124
113967,91.01124
114000,91.01124
114033,91.01124
114067,91.01124
114100,91.01124
114133,91.01124
114167,91.01124
114200,91.01124
114233,91.01124
114267,90.90909
114300,90.90909
114333,90.90909
114367,90.90909
114400,90.90909
114433,90.90909
114467,90.90909
114500,91.01124
114533,91.01124
114567,91.01124
114600,91.01124
114633,91.01124
114667,91.01124
114700,91.01124
114733,91.01124
114767,91.01124
114800,91.01124
114833,91.01124
114867,91.01124
114900,91.01124
114933,91.01124
114967,90.45226
115000,90.45226
115033,90.45226
115067,90.45226
115100,90.45226
115133,90.45226
115167,90.50279
115200,90.50279
115233,91.01124
115267,91.01124
115300,91.01124
115333,91.01124
115367,91.01124
115400,91.01124
115433,91.01124
115467,91.01124
115500,91.01124
115533,91.01124
115567,91.37056
115600,91.37056
115633,91.37056
115667,91.37056
115700,91.37056
115733,91.37056
115767,91.37056
115800,91.37056
115833,91.01124
115867,91.01124
115900,91.01124
115933,91.01124
115967,91.01124
116000,91.01124
116033,91.01124
116067,91.01124
116100,91.01124
116133,91.01124
116167,91.01124
116200,91.01124
116233,90.90909
116267,90.90909
116300,90.90909
116333,90.90909
116367,90.90909
116400,90.90909
116433,90.90909
116467,91.52542
116500,91.52542
116533,91.52542
116567,91.52542
116600,91.52542
116633,91.52542
116667,91.52542
116700,91.52542
116733,91.52542
116767,91.52542
116800,91.52542
116833,91.52542
116867,91.52542
116900,91.52542
116933,90.90909
116967,90.90909
117000,90.90909
117033,90.90909
117067,90.90909
117100,90.90909
117133,90.90909
117167,90.50279
117200,90.50279
117233,90.50279
117267,90.50279
117300,90.50279
117333,90.50279
117367,90.50279
117400,90.50279
117433,90.50279
117467,90.50279
117500,90.50279
117533,90.50279
117567,90.50279
117600,92.30769
117633,92.30769
117667,92.30769
117700,92.30769
117733,92.30769
117767,92.30769
117800,92.04546
117833,92.04546
117867,92.04546
117900,92.04546
117933,92.04546
117967,92.04546
118000,92.04546
118033,92.04546
118067,92.04546
118100,92.04546
118133,92.04546
118167,91.37056
118200,91.37056
118233,91.37056
118267,91.37056
118300,91.37056
118333,91.37056
118367,91.37056
118400,91.37056
118433,92.04546
118467,92.04546
118500,92.04546
118533,92.04546
118567,92.04546
118600,92.04546
118633,92.04546
118667,92.04546
118700,92.04546
118733,92.04546
118767,92.04546
118800,92.04546
118833,92.04546
118867,91.37056
118900,91.37056
118933,91.37056
118967,91.37056
119000,91.37056
119033,91.37056
119067,91.37056
119100,91.37056
119133,91.52542
119167,91.52542
119200,91.52542
119233,91.52542
119267,91.52542
119300,91.52542
119333,91.52542
119367,91.52542
119400,91.52542
119433,91.52542
119467,91.52542
119500,91.83673
119533,91.83673
119567,91.83673
119600,91.83673
119633,91.83673
119667,91.83673
119700,91.83673
119733,91.83673
119767,91.83673
119800,91.52542
119833,91.52542
119867,91.52542
119900,91.52542
119933,91.52542
119967,91.52542
120000,91.52542
120033,91.52542
120067,91.52542
120100,91.52542
120133,91.52542
120167,91.37056
120200,91.37056
120233,91.37056
120267,91.37056
120300,91.37056
120333,91.37056
120367,91.37056
120400,91.37056
120433,91.52542
120467,91.52542
120500,91.52542
120533,91.52542
120567,91.52542
120600,91.52542
120633,91.52542
120667,91.52542
120700,91.52542
120733,91.52542
120767,91.52542
120800,91.52542
120833,91.37056
120867,91.37056
120900,91.37056
120933,91.37056
120967,91.37056
121000,91.37056
121033,91.37056
121067,91.37056
121100,91.52542
121133,91.52542
121167,91.52542
121200,91.52542
121233,91.52542
121267,91.52542
121300,92.04546
121333,92.04546
121367,92.04546
121400,92.78351
121433,92.30769
121467,92.30769
121500,92.30769
121533,92.30769
121567,92.30769
121600,92.30769
121633,92.30769
121667,92.30769
121700,92.30769
121733,92.30769
121767,92.04546
121800,92.04546
121833,92.04546
121867,92.04546
121900,92.57143
121933,92.04546
121967,92.04546
122000,92.04546
122033,92.04546
122067,92.04546
122100,91.83673
122133,91.83673
122167,91.83673
122200,91.83673
122233,91.83673
122267,91.83673
122300,91.83673
122333,91.83673
122367,91.83673
122400,92.04546
122433,92.04546
122467,92.04546
122500,92.04546
122533,92.04546
122567,92.04546
122600,92.04546
122633,92.04546
122667,92.04546
122700,92.04546
122733,92.04546
122767,91.52542
122800,91.52542
122833,91.52542
122867,91.52542
122900,91.52542
122933,91.52542
122967,91.52542
123000,91.52542
123033,91.52542
123067,92.30769
123100,92.30769
123133,92.30769
123167,92.30769
123200,92.30769
123233,92.30769
123267,92.30769
123300,92.30769
123333,92.30769
123367,92.30769
123400,84.81676
123433,84.81676
123467,84.81676
123500,84.81676
123533,84.81676
123567,84.81676
123600,84.81676
123633,84.81676
123667,84.81676
123700,84.81676
123733,84.81676
123767,82.28571
123800,82.28571
123833,82.28571
123867,82.28571
123900,82.28571
123933,82.28571
123967,82.28571
124000,82.65306
124033,82.65306
124067,82.65306
124100,82.65306
124133,82.65306
124167,82.65306
124200,82.65306
124233,82.65306
124267,82.65306
124300,82.28571
124333,82.28571
124367,82.28571
124400,82.28571
124433,82.28571
124467,82.28571
124500,82.28571
124533,82.28571
124567,82.28571
124600,82.28571
124633,82.28571
124667,82.28571
124700,82.28571
124733,82.28571
124767,81.81818
124800,81.81818
124833,81.81818
124867,81.81818
124900,81.81818
124933,81.81818
124967,81.81818
125000,80.89888
125033,80.89888
125067,80.89888
125100,80.89888
125133,80.44693000000002
125167,80.44693000000002
125200,80.44693000000002
125233,80.44693000000002
125267,80.44693000000002
125300,80.44693000000002
125333,80.44693000000002
125367,80.44693000000002
125400,80.44693000000002
125433,80.44693000000002
125467,80.44693000000002
125500,80.44693000000002
125533,81.81818
125567,81.81818
125600,82.65306
125633,82.65306
125667,81.35593
125700,81.35593
125733,81.35593
125767,81.35593
125800,81.35593
125833,81.35593
125867,81.35593
125900,81.35593
125933,81.35593
125967,81.35593
126000,82.65306
126033,82.65306
126067,82.65306
126100,82.65306
126133,82.65306
126167,82.65306
126200,82.23351
126233,82.23351
126267,82.23351
126300,81.81818
126333,81.81818
126367,81.81818
126400,81.81818
126433,81.81818
126467,81.81818
126500,81.81818
126533,81.81818
126567,81.81818
126600,81.81818
126633,81.81818
126667,81.81818
126700,82.65306
126733,82.65306
126767,82.65306
126800,82.65306
126833,82.65306
126867,82.65306
126900,82.65306
126933,82.65306
126967,82.65306
127000,81.81818
127033,81.81818
127067,81.81818
127100,81.81818
127133,81.81818
127167,81.81818
127200,81.81818
127233,81.81818
127267,83.93782
127300,83.93782
127333,83.93782
127367,83.93782
127400,83.93782
127433,83.93782
127467,83.93782
127500,83.93782
127533,83.93782
127567,83.93782
127600,83.93782
127633,83.93782
127667,82.75862
127700,82.75862
127733,82.75862
127767,82.75862
127800,82.75862
127833,82.75862
127867,84.375
127900,84.375
127933,84.375
127967,84.375
128000,84.375
128033,84.375
128067,84.375
128100,84.375
128133,84.375
128167,84.375
128200,84.375
128233,84.375
128267,84.375
128300,83.72093000000002
128333,83.72093000000002
128367,83.72093000000002
128400,83.72093000000002
128433,83.72093000000002
128467,83.72093000000002
128500,83.72093000000002
128533,83.72093000000002
128567,83.93782
128600,84.375
128633,84.375
128667,84.375
128700,84.375
128733,84.375
128767,84.375
128800,84.375
128833,84.375
128867,84.375
128900,84.375
128933,84.375
128967,92.30769
129000,92.30769
129033,92.30769
129067,92.30769
129100,92.30769
129133,93.10345
129167,93.10345
129200,93.10345
129233,93.10345
129267,93.10345
129300,93.10345
129333,92.57143
129367,92.57143
129400,92.57143
129433,92.57143
129467,92.57143
129500,92.57143
129533,92.57143
129567,92.57143
129600,92.57143
129633,92.57143
129667,92.57143
129700,92.57143
129733,92.57143
129767,92.57143
129800,92.30769
129833,92.30769
129867,92.30769
129900,92.30769
129933,92.30769
129967,92.30769
130000,92.30769
130033,92.30769
130067,92.30769
130100,91.83673
130133,92.57143
130167,92.57143
130200,92.57143
130233,92.57143
130267,92.57143
130300,92.57143
130333,92.57143
130367,92.57143
130400,92.57143
130433,92.57143
130467,92.57143
130500,92.57143
130533,92.57143
130567,92.57143
130600,92.57143
130633,90.45226
130667,90.45226
130700,90.45226
130733,90.45226
130767,90.45226
130800,90.45226
130833,95.36423
130867,89.01099
130900,89.01099
130933,89.01099
130967,89.01099
131000,89.01099
131033,89.01099
131067,89.01099
131100,89.01099
131133,89.01099
131167,89.01099
131200,89.01099
131233,89.01099
131267,79.12088
131300,79.12088
131333,79.12088
131367,79.12088
131400,79.12088
131433,79.12088
131467,79.12088
131500,79.12088
131533,79.12088
131567,79.12088
131600,79.12088
131633,76.36364
131667,73.9726
131700,73.9726
131733,73.9726
131767,72.83237
131800,72.83237
131833,72.83237
131867,72.83237
131900,72.83237
131933,72.83237
131967,73.25581
132000,73.25581
132033,73.25581
132067,73.25581
132100,73.25581
132133,73.25581
132167,73.25581
132200,73.25581
132233,73.25581
132267,73.25581
132300,73.25581
132333,73.25581
132367,73.25581
132400,73.25581
132433,73.25581
132467,73.25581
132500,73.25581
132533,73.25581
132567,73.09644
132600,73.09644
132633,73.09644
132667,73.09644
132700,73.09644
132733,73.09644
132767,73.09644
132800,73.09644
132833,61.71429000000001
132867,61.71429000000001
132900,61.71429000000001
132933,61.71429000000001
132967,61.71429000000001
133000,61.71429000000001
133033,61.71429000000001
133067,61.71429000000001
133100,61.71429000000001
133133,61.71429000000001
133167,61.71429000000001
133200,61.71429000000001
133233,61.71429000000001
133267,61.71429000000001
133300,62.06896999999999
133333,62.06896999999999
133367,62.06896999999999
133400,62.06896999999999
133433,63.0
133467,62.68657
133500,62.68657
133533,62.68657
133567,62.68657
133600,64.28571
133633,64.28571
133667,64.28571
133700,64.28571
133733,64.28571
133767,64.28571
133800,64.28571
133833,64.28571
133867,64.28571
133900,64.28571
133933,64.28571
133967,64.28571
134000,64.28571
134033,64.28571
134067,64.28571
134100,64.28571
134133,64.28571
134167,64.28571
134200,64.28571
134233,64.28571
134267,64.28571
134300,64.28571
134333,64.28571
134367,64.28571
134400,64.61539
134433,64.61539
134467,64.28571
134500,64.28571
134533,64.28571
134567,64.28571
134600,64.28571
134633,64.28571
134667,64.28571
134700,67.08074
134733,67.08074
134767,67.08074
134800,67.08074
134833,67.08074
134867,67.08074
134900,67.08074
134933,67.08074
134967,67.08074
135000,67.08074
135033,67.08074
135067,67.08074
135100,67.08074
135133,67.08074
135167,67.08074
135200,67.08074
135233,67.08074
135267,67.08074
135300,67.08074
135333,66.66666
135367,66.66666
135400,66.31579
135433,66.31579
135467,66.31579
135500,66.31579
135533,66.31579
135567,66.31579
135600,66.31579
135633,66.31579
135667,66.31579
135700,66.31579
135733,66.31579
135767,66.31579
135800,66.31579
135833,66.31579
135867,65.45454000000001
135900,65.45454000000001
135933,65.45454000000001
135967,65.45454000000001
136000,65.45454000000001
136033,65.45454000000001
136067,65.45454000000001
136100,65.45454000000001
136133,65.45454000000001
136167,65.45454000000001
136200,65.45454000000001
136233,65.45454000000001
136267,65.45454000000001
136300,65.45454000000001
136333,65.45454000000001
136367,64.61539
136400,64.61539
136433,64.61539
136467,64.61539
136500,64.61539
136533,64.61539
136567,64.61539
136600,64.61539
136633,64.61539
136667,64.61539
136700,64.67066
136733,64.67066
136767,64.67066
136800,64.67066
136833,64.67066
136867,64.67066
136900,64.67066
136933,64.67066
136967,64.67066
137000,64.67066
137033,64.67066
137067,64.67066
137100,64.67066
137133,64.67066
137167,64.67066
137200,64.67066
137233,64.67066
137267,64.67066
137300,64.67066
137333,64.67066
137367,63.95939
137400,63.95939
137433,63.95939
137467,63.95939
137500,63.95939
137533,63.95939
137567,63.95939
137600,63.95939
137633,63.905330000000006
137667,63.905330000000006
137700,63.905330000000006
137733,63.905330000000006
137767,63.905330000000006
137800,63.905330000000006
137833,63.905330000000006
137867,63.905330000000006
137900,63.905330000000006
137933,63.905330000000006
137967,63.905330000000006
138000,63.905330000000006
138033,63.905330000000006
138067,63.905330000000006
138100,63.905330000000006
138133,63.905330000000006
138167,63.905330000000006
138200,63.905330000000006
138233,63.905330000000006
138267,63.905330000000006
138300,63.905330000000006
138333,63.905330000000006
138367,63.905330000000006
138400,63.905330000000006
138433,62.68657
138467,62.68657
138500,62.68657
138533,62.68657
138567,61.36364
138600,61.36364
138633,61.36364
138667,61.36364
138700,61.36364
138733,61.36364
138767,61.36364
138800,61.36364
138833,61.36364
138867,61.36364
138900,61.36364
138933,61.36364
138967,61.36364
139000,61.36364
139033,61.36364
139067,61.36364
139100,61.36364
139133,61.36364
139167,61.36364
139200,61.36364
139233,61.36364
139267,61.36364
139300,61.36364
139333,61.36364
139367,61.36364
139400,60.40268
139433,60.33519
139467,60.33519
139500,60.33519
139533,60.33519
139567,60.33519
139600,60.33519
139633,60.33519
139667,60.33519
139700,60.33519
139733,60.33519
139767,60.33519
139800,60.33519
139833,60.33519
139867,60.33519
139900,60.33519
139933,60.33519
139967,60.33519
140000,60.33519
140033,60.33519
140067,60.33519
140100,60.33519
140133,60.33519
140167,60.33519
140200,60.33519
140233,60.33519
140267,60.33519
140300,59.60265
140333,59.60265
140367,59.60265
140400,59.60265
140433,59.60265
140467,59.34066
140500,59.34066
140533,59.34066
140567,59.34066
140600,59.34066
140633,59.34066
140667,59.34066
140700,59.34066
140733,59.34066
140767,59.34066
140800,59.34066
140833,59.34066
140867,59.34066
140900,59.34066
140933,59.34066
140967,59.34066
141000,59.34066
141033,59.34066
141067,59.34066
141100,59.34066
141133,59.34066
141167,59.34066
141200,59.34066
141233,58.82353000000001
141267,58.82353000000001
141300,58.82353000000001
141333,60.33519
141367,60.33519
141400,60.33519
141433,60.33519
141467,60.33519
141500,60.33519
141533,60.33519
141567,60.33519
141600,60.33519
141633,60.33519
141667,60.33519
141700,60.33519
141733,60.33519
141767,60.33519
141800,60.33519
141833,60.33519
141867,60.33519
141900,60.33519
141933,60.33519
141967,60.33519
142000,60.33519
142033,60.33519
142067,60.33519
142100,60.33519
142133,60.33519
142167,60.33519
142200,60.40268
142233,60.40268
142267,60.40268
142300,60.67416
142333,60.67416
142367,60.67416
142400,60.67416
142433,60.67416
142467,61.01695
142500,61.01695
142533,61.01695
142567,61.01695
142600,61.01695
142633,61.01695
142667,61.01695
142700,61.01695
142733,61.01695
142767,61.01695
142800,61.01695
142833,61.01695
142867,61.01695
142900,61.01695
142933,61.01695
142967,61.01695
143000,61.01695
143033,61.01695
143067,62.68657
143100,62.68657
143133,62.68657
143167,62.68657
143200,63.15789
143233,63.15789
143267,63.15789
143300,63.15789
143333,63.15789
143367,63.15789
143400,63.15789
143433,63.15789
143467,63.15789
143500,63.15789
143533,63.15789
143567,63.15789
143600,63.15789
143633,63.15789
143667,63.15789
143700,63.15789
143733,63.15789
143767,63.15789
143800,63.15789
143833,63.15789
143867,63.15789
143900,63.15789
143933,63.15789
143967,63.15789
144000,63.31658
144033,63.31658
144067,63.31658
144100,63.31658
144133,63.31658
144167,63.31658
144200,64.67066
144233,64.67066
144267,64.67066
144300,64.67066
144333,64.67066
144367,64.67066
144400,64.67066
144433,64.67066
144467,64.67066
144500,64.67066
144533,64.67066
144567,64.67066
144600,64.67066
144633,68.10811
144667,68.10811
144700,68.10811
144733,68.10811
144767,68.10811
144800,68.10811
144833,68.10811
144867,68.10811
144900,68.10811
144933,68.10811
144967,68.10811
145000,68.10811
145033,68.10811
145067,67.74194
145100,67.74194
145133,67.74194
145167,67.74194
145200,67.74194
145233,67.74194
145267,69.23076999999999
145300,69.23076999999999
145333,69.23076999999999
145367,69.23076999999999
145400,69.23076999999999
145433,69.23076999999999
145467,69.23076999999999
145500,69.23076999999999
145533,69.23076999999999
145567,69.23076999999999
145600,69.23076999999999
145633,69.23076999999999
145667,69.23076999999999
145700,69.23076999999999
145733,69.23076999999999
145767,69.23076999999999
145800,69.23076999999999
145833,69.23076999999999
145867,69.23076999999999
145900,64.94846
145933,64.94846
145967,64.94846
146000,64.94846
146033,64.94846
146067,64.94846
146100,64.94846
146133,64.94846
146167,64.94846
146200,64.94846
146233,64.94846
146267,66.25766999999999
146300,66.25766999999999
146333,66.25766999999999
146367,66.25766999999999
146400,66.25766999999999
146433,66.25766999999999
146467,66.25766999999999
146500,66.25766999999999
146533,66.25766999999999
146567,66.25766999999999
146600,66.25766999999999
146633,66.25766999999999
146667,66.25766999999999
146700,66.25766999999999
146733,66.25766999999999
146767,66.25766999999999
146800,66.25766999999999
146833,66.25766999999999
146867,66.25766999999999
146900,66.25766999999999
146933,66.25766999999999
146967,66.25766999999999
147000,66.25766999999999
147033,66.25766999999999
147067,66.25766999999999
147100,66.25766999999999
147133,66.25766999999999
147167,66.25766999999999
147200,62.68657
147233,62.68657
147267,62.68657
147300,61.71429000000001
147333,61.36364
147367,61.36364
147400,61.36364
147433,61.36364
147467,61.36364
147500,61.36364
147533,61.36364
147567,61.36364
147600,61.36364
147633,61.36364
147667,61.36364
147700,61.36364
147733,61.36364
147767,61.36364
147800,61.01695
147833,61.01695
147867,71.18644
147900,71.18644
147933,72.36180999999998
147967,72.36180999999998
148000,72.36180999999998
148033,72.36180999999998
148067,72.36180999999998
148100,72.36180999999998
148133,74.11765
148167,74.11765
148200,74.11765
148233,74.11765
148267,74.11765
148300,74.11765
148333,74.11765
148367,74.11765
148400,74.11765
148433,74.11765
148467,84.70588000000002
148500,86.63101999999998
148533,86.63101999999998
148567,86.17021
148600,86.17021
148633,86.17021
148667,86.17021
148700,86.17021
148733,86.17021
148767,86.17021
148800,86.17021
148833,86.63101999999998
148867,86.63101999999998
148900,86.63101999999998
148933,87.09676999999998
148967,87.09676999999998
149000,87.09676999999998
149033,86.63101999999998
149067,86.63101999999998
149100,86.63101999999998
149133,88.88889
149167,88.88889
149200,89.01099
149233,89.01099
149267,89.01099
149300,89.01099
149333,89.01099
149367,89.01099
149400,89.01099
149433,89.01099
149467,89.01099
149500,89.01099
149533,89.01099
149567,89.01099
149600,89.01099
149633,89.01099
149667,89.01099
149700,89.01099
149733,89.01099
149767,89.01099
149800,89.01099
149833,89.55224
149867,89.55224
149900,89.55224
149933,89.55224
149967,90.50279
150000,90.50279
150033,90.50279
150067,90.50279
150100,90.50279
150133,90.50279
150167,90.50279
150200,90.50279
150233,90.50279
150267,90.50279
150300,90.50279
150333,90.50279
150367,90.50279
150400,91.83673
150433,91.83673
150467,91.83673
150500,91.83673
150533,91.83673
150567,91.83673
150600,91.83673
150633,91.83673
150667,91.83673
150700,92.04546
150733,92.04546
150767,92.04546
150800,92.04546
150833,92.04546
150867,92.04546
150900,92.04546
150933,92.04546
150967,92.04546
151000,92.04546
151033,92.04546
151067,91.52542
151100,90.90909
151133,90.90909
151167,90.90909
151200,90.90909
151233,90.90909
151267,90.90909
151300,90.90909
151333,91.01124
151367,91.01124
151400,91.01124
151433,91.01124
151467,91.01124
151500,91.01124
151533,91.01124
151567,91.01124
151600,91.01124
151633,91.01124
151667,91.01124
151700,90.50279
151733,90.90909
151767,90.90909
151800,90.90909
151833,90.90909
151867,90.90909
151900,90.90909
151933,90.90909
151967,92.57143
152000,92.57143
152033,92.57143
152067,92.57143
152100,92.57143
152133,92.57143
152167,92.57143
152200,92.57143
152233,92.57143
152267,92.57143
152300,92.57143
152333,92.57143
152367,92.57143
152400,92.30769
152433,92.30769
152467,92.30769
152500,92.30769
152533,92.30769
152567,92.30769
152600,92.30769
152633,92.30769
152667,92.30769
152700,92.30769
152733,92.04546
152767,92.04546
152800,92.04546
152833,92.04546
152867,92.04546
152900,92.04546
152933,92.04546
152967,92.04546
153000,92.04546
153033,92.04546
153067,91.83673
153100,91.83673
153133,91.83673
153167,91.83673
153200,91.83673
153233,91.83673
153267,91.83673
153300,91.83673
153333,91.83673
153367,92.04546
153400,92.04546
153433,92.04546
153467,92.04546
153500,92.04546
153533,92.04546
153567,92.04546
153600,92.04546
153633,92.04546
153667,92.04546
153700,92.04546
153733,92.04546
153767,91.37056
153800,91.37056
153833,91.37056
153867,91.37056
153900,91.37056
153933,91.37056
153967,91.37056
154000,91.37056
154033,92.57143
154067,92.57143
154100,92.57143
154133,92.57143
154167,92.57143
154200,92.57143
154233,92.57143
154267,92.57143
154300,92.57143
154333,93.75
154367,93.75
154400,93.75
154433,93.75
154467,93.75
154500,93.75
154533,93.75
154567,93.75
154600,93.75
154633,93.75
154667,93.75
154700,93.75
154733,93.75
154767,92.04546
154800,92.04546
154833,92.04546
154867,92.04546
154900,92.04546
154933,92.04546
154967,92.04546
155000,91.83673
155033,91.83673
155067,91.83673
155100,91.37056
155133,91.37056
155167,91.37056
155200,91.37056
155233,91.37056
155267,91.37056
155300,92.04546
155333,92.04546
155367,92.04546
155400,92.57143
155433,92.57143
155467,92.57143
155500,92.57143
155533,92.57143
155567,92.57143
155600,92.57143
155633,92.57143
155667,92.57143
155700,92.57143
155733,92.57143
155767,90.90909
155800,90.90909
155833,90.90909
155867,90.90909
155900,90.90909
155933,90.90909
155967,90.90909
156000,90.50279
156033,90.50279
156067,90.50279
156100,90.50279
156133,90.50279
156167,90.50279
156200,90.50279
156233,90.50279
156267,90.50279
156300,90.50279
156333,90.50279
156367,90.50279
156400,90.50279
156433,90.50279
156467,90.50279
156500,90.50279
156533,90.50279
156567,90.50279
156600,88.23529
156633,87.09676999999998
156667,87.09676999999998
156700,87.09676999999998
156733,87.09676999999998
156767,87.09676999999998
156800,87.09676999999998
156833,87.09676999999998
156867,87.09676999999998
156900,87.09676999999998
156933,87.09676999999998
156967,87.09676999999998
157000,87.09676999999998
157033,87.09676999999998
157067,87.09676999999998
157100,87.09676999999998
157133,87.09676999999998
157167,87.09676999999998
157200,87.09676999999998
157233,86.74699
157267,86.74699
157300,86.74699
157333,86.74699
157367,86.74699
157400,86.74699
157433,86.74699
157467,86.74699
157500,86.74699
157533,86.74699
157567,86.74699
157600,86.74699
157633,82.23351
157667,82.23351
157700,82.23351
157733,82.23351
157767,82.23351
157800,82.23351
157833,82.23351
157867,82.23351
157900,80.89888
157933,80.89888
157967,80.89888
158000,80.89888
158033,80.89888
158067,80.89888
158100,80.89888
158133,80.89888
158167,80.89888
158200,80.89888
158233,80.89888
158267,80.89888
158300,80.89888
158333,81.40704000000002
158367,81.40704000000002
158400,81.40704000000002
158433,81.40704000000002
158467,81.40704000000002
158500,81.40704000000002
158533,80.44693000000002
158567,80.44693000000002
158600,80.44693000000002
158633,80.44693000000002
158667,80.44693000000002
158700,80.44693000000002
158733,80.44693000000002
158767,80.44693000000002
158800,80.44693000000002
158833,80.44693000000002
158867,80.44693000000002
158900,80.44693000000002
158933,80.44693000000002
158967,80.44693000000002
159000,80.44693000000002
159033,80.44693000000002
159067,80.44693000000002
159100,80.44693000000002
159133,80.44693000000002
159167,81.0
159200,80.0
159233,80.0
159267,80.0
159300,80.0
159333,80.0
159367,80.0
159400,80.0
159433,80.0
159467,80.0
159500,80.0
159533,70.0
159567,70.0
159600,70.0
159633,70.0
159667,70.0
159700,72.0
159733,72.0
159767,72.0
159800,72.0
159833,72.0
159867,77.30060999999998
159900,77.30060999999998
159933,77.30060999999998
159967,77.30060999999998
160000,77.30060999999998
160033,77.30060999999998
160067,77.30060999999998
160100,77.30060999999998
160133,77.30060999999998
160167,77.30060999999998
160200,77.30060999999998
160233,77.30060999999998
160267,77.30060999999998
160300,77.30060999999998
160333,80.0
160367,80.0
160400,80.59702
160433,81.0
160467,78.68852
160500,78.68852
160533,79.12088
160567,79.12088
160600,79.12088
160633,84.81676
160667,84.81676
160700,94.24084
160733,94.24084
160767,94.24084
160800,94.24084
160833,94.73684
160867,94.73684
160900,94.73684
160933,94.73684
160967,99.0
161000,99.0
161033,108.0
161067,108.0
161100,108.0
161133,110.6145
161167,120.6704
161200,120.6704
161233,120.6704
161267,124.4681
161300,124.4681
161333,124.4681
161367,124.4681
161400,134.0426
161433,134.0426
161467,134.0426
161500,134.0426
161533,134.0426
161567,134.0426
161600,134.0426
161633,135.6784
161667,135.6784
161700,135.6784
161733,135.6784
161767,135.6784
161800,135.6784
161833,151.6854
161867,161.7978
161900,161.7978
161933,163.6364
161967,163.6364
162000,163.6364
162033,163.6364
162067,163.6364
162100,163.6364
162133,173.262
162167,173.262
162200,173.262
162233,173.262
162267,173.262
162300,172.7273
162333,172.7273
162367,172.7273
162400,172.7273
162433,172.7273
162467,172.7273
162500,172.7273
162533,182.0225
162567,182.0225
162600,182.0225
162633,182.0225
162667,180.9524
162700,180.9524
162733,180.9524
162767,180.9524
162800,180.9524
162833,180.9524
162867,180.9524
162900,180.9524
162933,180.9524
162967,180.9524
163000,180.9045
163033,180.9045
163067,180.9045
163100,180.9045
163133,180.9045
163167,180.9045
163200,180.0
163233,180.0
163267,180.0
163300,180.0
163333,180.0
163367,180.0
163400,180.0
163433,180.0
163467,180.0
163500,180.0
163533,180.0
163567,180.0
163600,180.0
163633,180.0
163667,180.0
163700,180.0
163733,180.0
163767,180.0
163800,180.0
163833,180.0
163867,180.0
163900,180.0
163933,180.0
163967,180.9045
164000,180.9045
164033,180.9045
164067,180.9045
164100,180.9045
164133,180.9045
164167,180.0
164200,180.0
164233,180.0
164267,180.0
164300,180.0
164333,180.0
164367,180.0
164400,180.0
164433,180.0
164467,180.0
164500,180.0
164533,180.0
164567,180.0
164600,180.0
164633,180.0
164667,180.0
164700,180.0
164733,180.0
164767,180.0
164800,180.0
164833,180.0
164867,180.0
164900,180.0
164933,180.0
164967,180.0
165000,180.0
165033,180.0
165067,180.0
165100,180.0
165133,179.0576
165167,179.0576
165200,179.0576
165233,179.0576
165267,179.0576
165300,179.1045
165333,179.1045
165367,179.1045
165400,179.1045
165433,179.0576
165467,179.0576
165500,179.0576
165533,179.0576
165567,179.0576
165600,179.0576
165633,179.0576
165667,178.2178
165700,178.2178
165733,178.2178
165767,178.125
165800,178.125
165833,178.125
165867,178.125
165900,178.125
165933,178.125
165967,178.125
166000,178.125
166033,177.3399
166067,177.3399
166100,178.125
166133,178.125
166167,178.125
166200,178.125
166233,178.125
166267,178.125
166300,178.125
166333,178.125
166367,178.2178
166400,178.2178
166433,178.2178
166467,178.125
166500,178.125
166533,178.125
166567,178.125
166600,178.125
166633,178.125
166667,178.125
166700,178.2178
166733,178.2178
166767,178.2178
166800,178.125
166833,178.125
166867,178.125
166900,178.125
166933,178.125
166967,178.125
167000,179.1045
167033,179.1045
167067,179.1045
167100,179.1045
167133,179.0576
167167,179.0576
167200,179.0576
167233,179.0576
167267,179.0576
167300,179.0576
167333,179.1045
167367,179.1045
167400,179.1045
167433,179.1045
167467,179.0576
167500,179.0576
167533,179.0576
167567,179.0576
167600,179.0576
167633,179.0576
167667,179.1045
167700,179.1045
167733,179.1045
167767,179.1045
167800,178.125
167833,178.125
167867,178.125
167900,178.125
167933,178.125
167967,178.125
168000,178.2178
168033,178.2178
168067,178.2178
168100,179.0576
168133,179.0576
168167,179.0576
168200,179.0576
168233,179.0576
168267,179.0576
168300,180.0
168333,180.0
168367,180.0
168400,180.0
168433,179.1045
168467,178.125
168500,177.2021
168533,177.2021
168567,177.2021
168600,177.2021
168633,177.2021
168667,177.2021
168700,177.3399
168733,177.2021
168767,167.0103
168800,167.0103
168833,167.0103
168867,167.8756
168900,167.8756
168933,167.8756
168967,167.8756
169000,167.8756
169033,167.8756
169067,167.8756
169100,167.8756
169133,167.2131
169167,167.2131
169200,167.2131
169233,167.2131
169267,167.2131
169300,167.2131
169333,167.2131
169367,167.2131
169400,167.2131
169433,157.377
169467,156.9767
169500,156.9767
169533,156.9767
169567,156.9767
169600,156.9767
169633,144.7236
169667,156.9767
169700,146.5116
169733,146.5116
169767,133.0049
169800,133.0049
169833,130.5699
169867,130.5699
169900,131.25
169933,131.25
169967,131.25
170000,131.25
170033,131.25
170067,131.25
170100,131.25
170133,131.25
170167,128.5714
170200,128.5714
170233,128.5714
170267,128.5714
170300,128.5714
170333,128.5714
170367,128.5714
170400,128.5714
170433,128.5714
170467,128.5714
170500,124.8555
170533,124.8555
170567,124.8555
170600,124.8555
170633,124.8555
170667,116.4179
170700,116.4179
170733,116.4179
170767,116.4179
170800,113.089
170833,113.089
170867,103.6649
170900,103.125
170933,102.0619
170967,102.0619
171000,102.0619
171033,102.0619
171067,102.0619
171100,102.0619
171133,97.82609
171167,97.82609
171200,88.04348
171233,88.04348
171267,88.04348
171300,88.04348
171333,88.04348
171367,88.04348
171400,88.04348
171433,89.01099
171467,84.21053
171500,84.21053
171533,84.21053
171567,84.21053
171600,84.21053
171633,84.21053
171667,84.21053
171700,84.21053
171733,80.19802
171767,80.19802
171800,80.19802
171833,74.6114
171867,74.6114
171900,74.6114
171933,74.6114
171967,74.6114
172000,74.22681
172033,74.22681
172067,74.22681
172100,74.22681
172133,69.23076999999999
172167,69.23076999999999
172200,69.23076999999999
172233,69.23076999999999
172267,59.34066
172300,59.34066
172333,59.34066
172367,59.34066
172400,59.34066
172433,59.34066
172467,59.34066
172500,59.34066
172533,62.93706
172567,62.93706
172600,62.93706
172633,62.93706
172667,62.93706
172700,62.93706
172733,62.93706
172767,62.93706
172800,62.06896999999999
172833,62.06896999999999
172867,62.06896999999999
172900,62.06896999999999
172933,62.06896999999999
172967,62.06896999999999
173000,62.06896999999999
173033,62.06896999999999
173067,62.06896999999999
173100,62.06896999999999
173133,61.71429000000001
173167,61.71429000000001
173200,61.71429000000001
173233,61.71429000000001
173267,61.71429000000001
173300,61.71429000000001
173333,61.71429000000001
173367,61.71429000000001
173400,61.71429000000001
173433,61.71429000000001
173467,61.71429000000001
173500,61.71429000000001
173533,61.71429000000001
173567,61.71429000000001
173600,61.71429000000001
173633,61.71429000000001
173667,61.71429000000001
173700,61.71429000000001
173733,61.71429000000001
173767,61.76471
173800,61.36364
173833,61.36364
173867,61.36364
173900,61.36364
173933,61.36364
173967,61.36364
174000,61.36364
174033,61.36364
174067,61.36364
174100,61.36364
174133,61.36364
174167,61.36364
174200,61.36364
174233,61.36364
174267,61.36364
174300,61.36364
174333,61.36364
174367,61.36364
174400,61.36364
174433,61.36364
174467,61.36364
174500,61.71429000000001
174533,61.71429000000001
174567,61.71429000000001
174600,61.71429000000001
174633,62.37624
174667,62.37624
174700,62.37624
174733,61.36364
174767,61.36364
174800,61.36364
174833,61.36364
174867,61.36364
174900,61.36364
174933,61.36364
174967,61.36364
175000,61.01695
175033,61.01695
175067,61.01695
175100,61.36364
175133,61.36364
175167,61.36364
175200,61.36364
175233,61.36364
175267,61.36364
175300,61.36364
175333,61.36364
175367,61.36364
175400,61.36364
175433,61.36364
175467,61.36364
175500,61.36364
175533,61.36364
175567,61.36364
175600,61.22449
175633,61.22449
175667,60.67416
175700,60.67416
175733,60.67416
175767,60.67416
175800,60.67416
175833,60.67416
175867,60.67416
175900,60.67416
175933,60.67416
175967,60.67416
176000,60.67416
176033,60.67416
176067,60.67416
176100,60.67416
176133,60.67416
176167,60.67416
176200,60.67416
176233,60.67416
176267,60.67416
176300,60.67416
176333,60.67416
176367,60.67416
176400,60.67416
176433,60.67416
176467,60.67416
176500,60.67416
176533,61.76471
176567,61.71429000000001
176600,61.71429000000001
176633,61.71429000000001
176667,61.71429000000001
176700,61.71429000000001
176733,61.71429000000001
176767,61.71429000000001
176800,61.71429000000001
176833,61.71429000000001
176867,61.71429000000001
176900,61.71429000000001
176933,61.71429000000001
176967,61.71429000000001
177000,61.71429000000001
177033,61.71429000000001
177067,61.71429000000001
177100,61.71429000000001
177133,61.71429000000001
177167,61.71429000000001
177200,61.71429000000001
177233,61.71429000000001
177267,61.71429000000001
177300,61.71429000000001
177333,61.71429000000001
177367,61.71429000000001
177400,61.71429000000001
177433,61.71429000000001
177467,62.06896999999999
177500,62.06896999999999
177533,62.7907
177567,62.7907
177600,62.7907
177633,62.7907
177667,62.7907
177700,62.7907
177733,62.7907
177767,62.7907
177800,62.7907
177833,62.7907
177867,62.7907
177900,62.7907
177933,62.7907
177967,62.7907
178000,62.7907
178033,62.7907
178067,62.7907
178100,62.7907
178133,62.7907
178167,62.7907
178200,62.7907
178233,62.7907
178267,62.7907
178300,62.7907
178333,62.7907
178367,63.31658
178400,63.31658
178433,63.31658
178467,63.31658
178500,63.31658
178533,63.31658
178567,64.67066
178600,64.67066
178633,64.67066
178667,64.67066
178700,64.67066
178733,64.67066
178767,64.67066
178800,64.67066
178833,64.67066
178867,64.67066
178900,64.67066
178933,64.67066
178967,64.67066
179000,65.06024000000001
179033,65.06024000000001
179067,65.06024000000001
179100,65.06024000000001
179133,65.06024000000001
179167,65.06024000000001
179200,65.06024000000001
179233,65.06024000000001
179267,65.28497
179300,65.28497
179333,65.28497
179367,65.28497
179400,65.28497
179433,65.28497
179467,65.28497
179500,65.28497
179533,65.28497
179567,65.28497
179600,65.28497
179633,65.28497
179667,65.06024000000001
179700,65.06024000000001
179733,65.06024000000001
179767,65.06024000000001
179800,65.06024000000001
179833,65.06024000000001
179867,65.06024000000001
179900,65.06024000000001
179933,65.06024000000001
179967,65.06024000000001
180000,65.06024000000001
180033,65.06024000000001
180067,65.06024000000001
180100,65.06024000000001
180133,65.06024000000001
180167,65.06024000000001
180200,65.06024000000001
180233,64.61539
180267,64.61539
180300,64.61539
180333,64.28571
180367,64.28571
180400,64.28571
180433,64.28571
180467,64.28571
180500,64.28571
180533,64.61539
180567,64.28571
180600,64.28571
180633,64.28571
180667,64.28571
180700,64.28571
180733,64.28571
180767,64.28571
180800,64.28571
180833,64.28571
180867,64.28571
180900,64.28571
180933,64.28571
180967,64.28571
181000,64.28571
181033,64.28571
181067,64.28571
181100,64.28571
181133,64.28571
181167,64.28571
181200,64.28571
181233,64.28571
181267,64.28571
181300,64.28571
181333,64.28571
181367,63.95939
181400,63.95939
181433,63.95939
181467,65.06024000000001
181500,65.45454000000001
181533,65.45454000000001
181567,65.45454000000001
181600,65.45454000000001
181633,65.45454000000001
181667,65.45454000000001
181700,65.45454000000001
181733,65.45454000000001
181767,65.45454000000001
181800,65.45454000000001
181833,65.45454000000001
181867,65.45454000000001
181900,65.45454000000001
181933,65.45454000000001
181967,65.45454000000001
182000,65.45454000000001
182033,65.45454000000001
182067,65.45454000000001
182100,65.45454000000001
182133,64.94846
182167,64.94846
182200,64.94846
182233,64.94846
182267,64.94846
182300,64.94846
182333,64.94846
182367,64.94846
182400,64.94846
182433,64.94846
182467,64.94846
182500,64.94846
182533,64.94846
182567,64.94846
182600,64.94846
182633,64.94846
182667,64.94846
182700,64.94846
182733,64.94846
182767,64.94846
182800,64.94846
182833,64.94846
182867,64.94846
182900,64.94846
182933,64.94846
182967,64.94846
183000,64.94846
183033,64.94846
183067,64.94846
183100,64.94846
183133,64.94846
183167,64.94846
183200,64.94846
183233,64.94846
183267,64.94846
183300,64.94846
183333,64.94846
183367,64.94846
183400,64.94846
183433,64.94846
183467,64.94846
183500,64.94846
183533,64.94846
183567,64.94846
183600,64.94846
183633,64.94846
183667,64.94846
183700,64.94846
183733,64.94846
183767,64.94846
183800,64.94846
183833,64.94846
183867,64.94846
183900,64.94846
183933,64.94846
183967,64.94846
184000,64.94846
184033,64.94846
184067,64.94846
184100,64.94846
184133,64.94846
184167,64.94846
184200,64.94846
184233,64.94846
184267,64.94846
184300,64.94846
184333,64.94846
184367,64.94846
184400,64.94846
184433,64.94846
184467,64.94846
184500,64.94846
184533,64.94846
184567,64.94846
184600,64.94846
184633,64.94846
184667,64.94846
184700,64.94846
184733,64.94846
184767,64.94846
184800,64.94846
184833,64.94846
184867,64.94846
184900,64.94846
184933,64.94846
184967,64.94846
185000,64.94846
185033,64.94846
185067,64.94846
185100,64.94846
185133,64.94846
185167,64.94846
185200,64.94846
185233,64.94846
185267,64.94846
185300,64.94846
185333,64.94846
185367,64.94846
185400,64.94846
185433,64.94846
185467,64.94846
185500,64.94846
185533,64.94846
185567,64.94846
185600,64.94846
185633,64.94846
185667,64.94846
185700,64.94846
185733,64.94846
185767,64.94846
185800,64.94846
185833,64.94846
185867,64.94846
185900,64.94846
185933,64.94846
185967,64.94846
186000,64.94846
186033,64.94846
186067,64.94846
186100,64.94846
186133,64.94846
186167,64.94846
186200,64.94846
186233,64.94846
186267,64.94846
186300,64.94846
186333,64.94846
186367,64.94846
186400,64.94846
186433,64.94846
186467,64.94846
186500,64.94846
186533,64.94846
186567,64.94846
186600,64.94846
186633,64.94846
186667,64.94846
186700,64.94846
186733,64.94846
186767,64.94846
186800,64.94846
186833,64.94846
186867,64.94846
186900,64.94846
186933,64.94846
186967,64.94846
187000,64.94846
187033,64.94846
187067,64.94846
187100,64.94846
187133,64.94846
187167,64.94846
187200,64.94846
187233,64.94846
187267,64.94846
187300,64.94846
187333,64.94846
187367,64.94846
187400,64.94846
187433,64.94846
187467,64.94846
187500,64.94846
187533,64.94846
187567,64.94846
187600,64.94846
187633,64.94846
187667,64.94846
187700,64.94846
187733,64.94846
187767,64.94846
187800,64.94846
187833,64.94846
187867,64.94846
187900,64.94846
187933,64.94846
187967,64.94846
188000,64.94846
188033,64.94846
188067,64.94846
188100,64.94846
188133,64.94846
188167,64.94846
188200,64.94846
188233,64.94846
188267,64.94846
188300,64.94846
188333,64.94846
188367,64.94846
188400,64.94846
188433,64.94846
188467,64.94846
188500,64.94846
188533,64.94846
188567,64.94846
188600,64.94846
188633,64.94846
188667,64.94846
188700,64.94846
188733,64.94846
188767,64.94846
188800,64.94846
188833,64.94846
188867,64.94846
188900,64.94846
188933,64.94846
188967,64.94846
189000,64.94846
189033,64.94846
189067,64.94846
189100,64.94846
189133,64.94846
