B,G,R,Time[ms]
119.59845827378632,90.93958685202028,67.14423368411936,0.0
119.59791693733489,90.9389589017366,67.14360573383571,33.333333333333336
119.92834810912672,90.9156280782903,67.93807015289735,66.66666666666667
119.15650931120544,90.74720023891294,67.20985942532903,100.0
119.67548369205826,90.67759551184963,67.77565647731393,133.33333333333334
119.5471763011372,90.93602338929855,67.50747038717029,166.66666666666666
119.63128362958777,90.73096329795031,68.07419969432408,200.0
119.65935975545923,90.70221719741222,68.08437493457279,233.33333333333331
119.24588094055308,90.91020864381521,67.64534691174036,266.6666666666667
120.12210012210012,90.9421077007284,68.217759252242,300.0
120.06640871247528,90.92352672651785,67.6161772058344,333.3333333333333
120.7003673673456,91.00106514792513,68.2372019216138,366.6666666666666
120.16145698227407,91.16638564634674,67.95285343709469,400.0
120.15737137916126,91.17233030696066,67.94005620406399,433.33333333333337
120.32005802171548,91.14204654536144,68.46534695705967,466.66666666666674
119.9730949340145,91.18641975308644,68.05208599404003,500.0
120.07905351480773,90.87772049783224,68.38748085675459,533.3333333333334
119.68352822668943,90.80613585599792,67.70829501160601,566.6666666666666
120.0933504971591,90.65411931818184,68.1488370028409,600.0
120.1146795099432,90.6648837002841,68.14457563920455,633.3333333333333
119.7995790406558,90.85789298770356,67.75300764373546,666.6666666666666
120.35715556741847,90.86340584545576,68.3369589394546,700.0
120.28713860638628,91.28225340853577,68.19249900075498,733.3333333333333
120.50300805095993,91.1577457312218,68.53494647438734,766.6666666666667
119.67065470255899,90.82906835050406,67.76098371552011,800.0
119.64581810125179,90.84331450094162,67.74106569181345,833.3333333333335
119.94471925133688,90.5241532976827,67.886876114082,866.6666666666667
119.26178988326849,90.25943301834353,67.10419121734297,900.0
119.95047753802618,90.36250884329678,67.79149717014504,933.3333333333336
119.69007490636706,90.68092936155386,67.52811166274715,966.6666666666664
120.46676933755585,90.89317166283459,68.15185892152185,1000.0
120.51638230409179,91.04521041392547,68.35212786609435,1033.3333333333335
120.41299871299871,91.40529815529815,68.01971256971257,1066.6666666666667
120.26233118027012,91.13851606408859,68.36253250566227,1100.0
120.1756064016004,91.57145536384097,68.48212053013253,1133.3333333333333
120.57225469468972,91.41294615097624,68.66005471956224,1166.6666666666667
120.43637119771864,91.77810123574145,68.85957303548795,1200.0
120.41668647021544,91.79465700253485,68.83054103295311,1233.3333333333335
121.10023623330076,91.49529569892474,68.65658602150539,1266.6666666666665
120.85625111822357,91.59640578096734,68.35924298749579,1300.0
120.65028067678685,90.99128320683113,68.14116856419987,1333.3333333333333
120.81297439917404,91.76513775500449,68.66065044070129,1366.6666666666667
120.91098527323021,91.81838229797415,68.97448979591837,1400.0
120.94527921058534,91.843257083053,68.97405995365179,1433.333333333333
120.38254810882549,91.67239917422398,68.49852539998524,1466.6666666666665
120.87472081218272,91.85605906783572,68.76730964467005,1500.0
120.63383972585169,91.88495299529036,68.58172222324029,1533.3333333333335
120.62770716069632,91.36953442427406,68.30940843180379,1566.666666666667
120.88454768100414,91.22895300780651,67.70398362161335,1600.0
120.87264546633112,91.27865477007549,67.71202242049874,1633.333333333333
121.45629629629627,91.62718614718617,68.30025974025975,1666.666666666667
120.07464153561516,90.69039084181313,67.18784690101756,1700.0
119.51076207097151,90.46247818499128,67.16828989097188,1733.3333333333335
119.30641285574828,90.65833145603365,67.10668694150334,1766.6666666666665
119.28231523378582,90.7732843137255,67.36889140271494,1800.0
119.31070889894421,90.73800904977377,67.38996983408748,1833.333333333333
118.32072174738842,90.3815004748338,66.8777207977208,1866.666666666667
118.2648161300505,90.02361505681819,66.69144570707071,1900.0
118.61998095868864,90.07490272373545,66.45732262604521,1933.333333333333
118.97901774451266,90.43764191405263,67.00752670086621,1966.6666666666665
118.01644597232831,90.0391732450556,66.31007554536967,2000.0
117.99176640353113,90.069539937187,66.28074866310159,2033.333333333333
118.27492193388608,89.96341121998492,66.53739636050392,2066.666666666667
118.2989820200952,90.0584126564428,66.24636435748282,2100.0
118.31398146497948,89.68597397968277,66.31923899483158,2133.333333333333
117.76626057301833,89.34699692625246,65.58744475107132,2166.6666666666665
117.89857845817387,88.90192728266813,65.66532258064517,2200.0
118.08497191011236,89.17712486408121,65.95306270387822,2233.333333333333
117.01548525812576,88.49065623641893,64.96838902994122,2266.6666666666665
116.71414525139666,88.38136312849163,65.34140782122905,2300.0
115.9512115543568,88.2697394179319,64.90140079175185,2333.333333333333
115.83265027322405,88.21174863387978,65.19930413251366,2366.6666666666665
115.58092262923657,88.32416124614859,65.10555032523108,2400.0
115.603325059911,88.32936066415611,65.12506419034577,2433.333333333333
115.96546489563568,88.55247733502003,65.87461522243306,2466.666666666667
114.79255230474286,88.00452196382429,64.79234391931314,2500.0
115.17027646439415,88.11552040963807,65.25179113414407,2533.333333333333
114.96830673301262,88.15508021390373,64.90843020254786,2566.666666666667
115.26688982324366,88.02179858758215,65.17791974527492,2600.0
115.53916274159495,88.35461669644306,65.54570001624167,2633.333333333333
115.34848484848484,88.545333655706,65.1633824951644,2666.6666666666665
116.24399320443331,88.89871369630289,65.84483456031066,2700.0
116.21720877150076,89.29518219613595,65.63489443221651,2733.333333333333
116.5362227975083,89.2409392443977,66.1134819189386,2766.666666666666
115.9918454320077,89.03786342123054,65.36605404962403,2800.0
116.00655643657672,89.02384903804781,65.41272768250455,2833.333333333333
116.50238695269121,89.08484438707563,65.96393959882803,2866.666666666666
116.1321531747495,89.11029155653902,65.53814002089864,2900.0
116.03779920075804,88.46873068841923,65.53981790466774,2933.333333333333
115.65185093983419,88.6412213740458,65.13539358121973,2966.666666666667
116.32301825456364,88.60087938651328,65.54901225306328,3000.0
116.41354257483287,88.65983725661144,65.61751152073732,3033.333333333333
116.80291717666258,89.51995104039167,66.20061199510404,3066.666666666667
118.30666829010916,90.44340273550064,67.39624173058971,3100.0
118.95968253968256,90.07843537414965,66.49412698412698,3133.333333333333
120.32786809639109,90.5459471924363,67.17336561743342,3166.666666666666
118.99909964661128,89.90341459022665,66.32660319175278,3200.0
119.00776554797758,89.9131609156594,66.36666891755014,3233.333333333333
118.30191696790449,89.32500821557673,66.47286668857487,3266.666666666666
117.78925984048843,89.63673495711245,66.2047853472924,3300.0
117.32691270680098,88.89305666400641,66.10653350876815,3333.333333333333
116.6279287125348,88.83856235529026,65.63918686407375,3366.666666666666
117.48213788822537,89.16036302146877,66.46409383762496,3400.0
117.49185556197693,89.17731543911471,66.45337014918985,3433.333333333333
117.49846475329441,89.75907288157278,66.40701095995564,3466.666666666667
118.60218236819357,90.13130942091615,67.1068496110631,3500.0
118.5832272815513,90.6240374452665,67.05996419404241,3533.333333333333
119.35506029285101,90.86100344530577,67.84552110249784,3566.666666666667
119.621886296418,91.19927702924744,67.55984226092671,3600.0
119.651900536751,91.16654617154123,67.5640924526235,3633.333333333334
119.94295713035869,91.12602799650044,68.1749343832021,3666.666666666666
119.38013998250221,90.92637795275593,67.58506124234471,3700.0
120.15546347452423,91.19626414101549,68.35144260282381,3733.333333333334
119.58280715601157,91.11799526440409,67.78435499429975,3766.666666666666
119.46519097222223,90.58098958333332,67.69032118055556,3800.0
119.78880139982502,90.78195538057741,67.88982939632545,3833.333333333334
119.61167181450384,91.14936703354073,67.70024361595684,3866.666666666666
119.81917452063698,90.94776297259232,68.05234535803271,3900.0
119.39333767361113,91.0419921875,67.56148003472222,3933.333333333333
120.17739590218108,90.96809870015423,67.8061687596387,3966.666666666667
119.82461504375765,91.01697130829731,67.25676304420074,4000.0
119.76811786861636,91.03048631882132,67.19244488755955,4033.333333333333
120.21790185000557,91.02984380192757,67.6286252354049,4066.666666666666
120.30719012301815,91.514411333659,67.57449926722032,4100.0
121.08070056497179,91.6486327683616,68.08289265536722,4133.333333333334
120.78375317143892,91.8165549111997,67.78937114896702,4166.666666666667
121.5041563898785,91.96446515026949,68.52005115556773,4200.0
121.52927742760572,91.9693980085868,68.53521512743218,4233.333333333333
121.0830007980846,92.04528560027364,68.11526621821913,4266.666666666667
121.6452744817397,92.05480400757193,68.47610693014451,4300.0
121.2429250780922,91.87400345004428,67.95843629073616,4333.333333333333
121.38870832946421,91.63285820410437,68.2102795059894,4366.666666666666
120.88956727644162,91.61433280713158,67.70078465967127,4400.0
120.931456319746,91.57160199841248,67.59709576504645,4433.333333333334
121.15079142737078,91.36739505999904,67.88658542279497,4466.666666666667
120.64728953634962,91.24938133258621,67.30709249661483,4500.0
120.93752760921623,91.28762409616144,67.76480435237497,4533.333333333333
120.86675901577765,91.44884015777613,67.39469853493614,4566.666666666666
121.45122723116957,91.70122137046673,68.07747849122066,4600.0
121.48085628064881,91.64400226329687,67.99457751791776,4633.333333333334
121.26801467174296,91.95066858575541,67.88213854582598,4666.666666666667
121.124126984127,91.65079365079364,68.18034013605443,4700.0
119.857010381562,91.03645986474571,67.06086445163187,4733.333333333333
119.74901433691757,90.74354838709678,67.24677419354839,4766.666666666667
119.72639324158605,91.03787982013898,66.80081300813008,4800.0
119.71769541717764,91.04271699141572,66.78139619385021,4833.333333333333
119.89561403508772,90.86070625281151,67.20713000449842,4866.666666666666
119.04417670682732,90.871463632307,66.55133868808568,4900.0
118.60310175316481,90.28970722582329,66.456910427633,4933.333333333334
120.24782154803246,92.31569976777382,67.96638046743507,4966.666666666667
122.04314063848145,92.75856728833432,68.54248799805313,5000.0
122.08998590824704,92.62128973091465,68.37517614691211,5033.333333333333
121.15081967213116,92.4014274562284,67.7669231627077,5066.666666666666
118.95993548387095,90.62219354838707,66.92860215053763,5100.0
117.256524268617,90.21181017287232,66.33485704787232,5133.333333333334
115.77723285486445,89.17547846889951,65.98883572567783,5166.666666666667
114.48348773627585,88.72992270018291,65.19885525461733,5200.0
114.48095041403593,88.72465136405657,65.19891426211129,5233.333333333333
114.23471237194643,88.39267139479907,65.3439913317573,5266.666666666667
113.66229314420805,88.32840819542947,64.75693459416864,5300.0
114.52292680980128,88.58606034001117,65.46438263229308,5333.333333333333
113.85171879961894,88.59175531914894,64.85594633216894,5366.666666666666
114.31097852981085,88.57692154202248,65.35178386144146,5400.0
114.71647777156996,88.8302338574507,65.64382632293079,5433.333333333334
114.23346697364245,89.01528262940614,65.24083042235631,5466.666666666667
114.30723563630569,88.59239780062157,65.36873456052275,5500.0
114.10668406262545,88.71607788036933,64.86955038137296,5533.333333333332
114.9088868214546,88.72180648814822,65.31951298438639,5566.666666666666
114.77922474932743,88.780834759925,64.76135159370668,5600.0
114.76591668704654,88.77531181217901,64.79014836553354,5633.333333333334
115.56430032733223,88.86847381342064,65.44097790507365,5666.666666666668
117.99188573101615,91.12556203860552,66.81751260012129,5700.0
119.46997038583632,91.73884142574087,67.87048597055627,5733.333333333332
118.93205983060012,90.81971976932779,66.61249774734186,5766.666666666668
119.25830993569424,90.88515533013313,67.31731727198624,5800.0
119.74392378873655,91.12404792760842,67.63019803105746,5833.333333333332
119.57966132147509,91.46741229843235,67.36715626824778,5866.666666666666
121.07832422586522,92.15391621129326,68.4540072859745,5900.0
121.40106404747287,92.9609167178228,68.73553418366187,5933.333333333334
122.09883440237257,92.95818102397871,69.14511345610043,5966.666666666668
121.47596881449208,92.93563402889248,68.62432928227473,6000.0
121.50396021366734,92.93014367286793,68.57736231350157,6033.333333333332
121.10140562248995,92.30207192405987,68.50917305585979,6066.666666666666
119.69183359013869,91.79703445657756,67.72249391482995,6100.0
120.14987171547378,91.93948509245337,68.30693178802089,6133.333333333334
119.12591655027931,91.76143505586592,67.75194221368716,6166.666666666668
119.32630535360212,91.3418594404054,67.87270323859882,6200.0
119.37384886538887,91.34800616875964,67.91387970918706,6233.333333333332
118.370262704565,90.99847114556415,67.28568044788975,6266.666666666668
118.09940501487465,90.56710582235443,67.4302167445814,6300.0
117.96403465399746,90.75217662360001,67.06647032267773,6333.333333333332
118.1924262152778,90.32632378472222,67.26829427083334,6366.666666666666
117.75353732638894,90.4228949652778,66.80353732638889,6400.0
117.7799406424581,90.36888966480448,66.70901710893855,6433.333333333334
118.19586563307492,90.32235142118864,67.26854005167958,6466.666666666668
118.42492434068308,90.85977086035452,67.06335927367056,6500.0
119.21174279767773,90.8788257202322,67.60534560192792,6533.333333333332
119.57655609060104,91.45710718744428,67.4143927233815,6566.666666666666
120.57552808988764,91.8403146067416,68.24013483146068,6600.0
120.586,91.83244943820226,68.26026966292136,6633.333333333334
120.54063636363637,92.03790909090908,67.83836363636364,6666.666666666668
120.43682089822529,91.7892747193046,68.01489496559219,6700.0
120.11009071060393,91.92583338960544,67.73356292344745,6733.333333333332
120.2750050244523,91.72883589022129,68.10631741140216,6766.666666666668
119.95906746164671,91.91395904513071,67.75366785020432,6800.0
119.9030580217021,91.91260873464265,67.70899470899471,6833.333333333332
120.01017952171705,91.83092278137217,68.2060414688542,6866.666666666666
119.66277298120872,91.94064521827455,67.88276988981386,6900.0
119.86240267452602,91.69652047683985,68.14648308626225,6933.333333333334
119.145471341222,91.46320327277529,67.57797035147144,6966.666666666668
119.60876259182686,91.40731535653015,67.94244050499275,7000.0
119.65495095236,91.35901552808693,68.00019795011657,7033.333333333332
119.19330928605991,91.44098887080456,67.52549157612282,7066.666666666666
119.67165796691143,91.2926214279395,67.75707776696453,7100.0
118.87889402952192,91.04514210178452,67.19032826613794,7133.333333333334
118.9920558286517,90.72318293539324,67.42867801966294,7166.666666666668
118.59676140118972,90.71775721524564,66.94450319453625,7200.0
118.55329367702134,90.70068296981717,66.95897774840273,7233.333333333332
119.00607067685831,90.64719175805917,67.37221668328347,7266.666666666668
118.5543369890329,90.62891326021936,66.86755289686496,7300.0
118.53245698735957,90.40491134129213,67.17823911516854,7333.333333333332
118.157926221336,90.3825855766035,66.63691148775895,7366.666666666666
118.87466079451931,90.59715734685707,67.16121713599361,7400.0
118.8882338491771,90.55650834059088,67.13333779951319,7433.333333333334
118.42844063330429,90.60020991045307,66.76280118800382,7466.666666666668
119.09989744961656,90.76727751025507,67.42805867665419,7500.0
119.30885875706215,91.24657627118643,67.16537853107344,7533.333333333332
119.89290395480226,91.35419209039549,67.77525423728814,7566.666666666666
119.69833242208858,91.55408237652634,67.32214780390014,7600.0
119.67580189538911,91.55232823036268,67.25687989794059,7633.333333333334
120.09693548387095,91.46523041474657,67.53354838709677,7666.666666666668
119.70782166422288,91.51702254398829,67.31799853372435,7700.0
120.40985540775014,91.57714285714287,67.77649508386351,7733.333333333332
120.08368513119534,91.69690962099124,67.32405830903791,7766.666666666668
121.16435771270244,91.80898581187598,67.95129699517507,7800.0
121.17921463717579,91.81290307170497,67.95382888262553,7833.333333333332
121.22914258188824,92.15019267822737,67.7,7866.666666666666
121.50681599229289,91.8699662813102,68.0438583815029,7900.0
120.76219773930464,91.78606858396529,67.53360041970716,7933.333333333334
121.05480040062956,91.59596031859587,67.91355463347165,7966.666666666668
120.93080952380951,91.86321428571428,67.73838095238095,8000.0
120.90076190476192,91.8567380952381,67.71347619047619,8033.333333333332
121.22792857142859,91.65190476190477,68.04338095238096,8066.666666666666
120.95262784090907,91.93264678030305,67.69699337121212,8100.0
121.05717329545456,91.75442708333334,67.86297348484848,8133.333333333332
120.13255203536563,91.58044759624241,67.2987428624056,8166.666666666666
119.57949412827463,90.9153342366757,67.26154019873532,8200.0
119.58441734417343,90.90191960252936,67.2556684733514,8233.333333333332
118.91074681238615,91.21906204051176,67.07097241424715,8266.666666666668
118.52733159532421,91.09618619123708,67.36771507863091,8300.0
117.16671611426634,90.42563787403576,66.51400779859286,8333.333333333334
116.36138720364872,89.19502172884127,65.6910416935588,8366.666666666668
116.21399185865236,89.5154598995323,65.64284167677118,8400.0
116.26258011432532,89.49424042958599,65.65860471158844,8433.333333333334
116.93713314797651,89.62121011518602,66.03332009356106,8466.666666666666
115.91129405031806,89.21773678765602,65.3315797583148,8500.0
115.880930335097,88.77105379188713,65.39920634920635,8533.333333333334
114.9854461809661,88.70197992131911,64.87243373390372,8566.666666666666
114.63535498348189,88.3807475742276,64.98163269546427,8600.0
114.90818837859258,88.61905059859009,65.15901222208318,8633.333333333332
114.35165783310735,88.4438144541682,64.6215333415506,8666.666666666666
115.5702610342556,88.74993824110672,65.53159996706192,8700.0
115.14880279519062,88.92689343335732,65.27812146747507,8733.333333333332
115.71908334189699,88.86494707635391,65.67392868153324,8766.666666666668
116.051551162057,89.15145651488064,65.28688610789777,8800.0
116.05691450205069,89.16182563886845,65.2920811862446,8833.333333333334
117.32682625021336,89.68175029868578,66.17374978665302,8866.666666666668
118.23853813327496,90.45573913994969,66.4435715067294,8900.0
119.48902661157759,90.88542360833445,67.12988138078101,8933.333333333334
119.6138964875807,91.49668453878981,67.32340518656308,8966.666666666666
120.89076668505241,92.14912300055157,68.38413678985107,9000.0
120.92194153337007,92.14318808604523,68.42263651406509,9033.333333333334
120.59527846615364,92.40072170775184,68.25277161862527,9066.666666666666
119.92347954459034,90.99847898539379,67.28069429843201,9100.0
119.61310372482625,91.04669399394052,66.96558100160401,9133.333333333332
119.72058691756271,90.7608646953405,67.21422491039426,9166.666666666666
119.4412537872037,91.06404829798606,67.01499287114596,9200.0
119.43047139547319,91.0664988415612,66.96656121903403,9233.333333333332
119.54206023881659,91.28898592051328,67.14462662626983,9266.666666666668
119.46426734068493,91.28442973136198,67.0099313306641,9300.0
119.81982687274923,91.2396045362024,67.50772809627128,9333.333333333334
119.44999332651156,91.36439471459715,67.1540463584998,9366.666666666668
119.89077675272672,91.36459370367912,67.69438729231653,9400.0
119.9210194464724,91.35408508661313,67.66985243689298,9433.333333333334
119.55610419821363,91.43285711150614,67.17288827440912,9466.666666666666
120.15194540984993,91.73667033991691,68.10250487412054,9500.0
120.17772629846935,91.89196561951981,67.63499967524736,9533.333333333334
118.34337062088105,89.9505506416927,66.37109781477628,9566.666666666666
116.86327472527472,88.82617582417582,64.92114285714285,9600.0
116.79630769230768,88.83789010989011,64.86582417582417,9633.333333333332
116.99465945945946,89.04793513513512,65.63422702702702,9666.666666666666
115.6573877638487,88.52411871852566,64.79402121504339,9700.0
115.5529106029106,88.4454261954262,65.41392931392932,9733.333333333332
114.50680913471615,88.20800335218941,64.81018227529857,9766.666666666668
114.28429389956185,87.5239720256151,64.60810583080553,9800.0
114.26408391135172,87.44763999323295,64.57532566401625,9833.333333333334
113.73804734967527,87.70232558139536,64.36867798030589,9866.666666666668
113.51904264214045,87.03710284280935,64.21479933110368,9900.0
113.85288478687357,86.49273229891207,62.58395755305868,9933.333333333334
114.23341661602178,86.16269385733902,62.80273257253472,9966.666666666666
114.55031425135573,86.790030177206,62.777165157806365,10000.0
114.48655913978494,86.73448605795517,62.700883907417534,10033.333333333334
115.05620220996984,86.94849454314434,63.30252081773422,10066.666666666666
115.16068769459862,87.50936329588016,63.28606561075764,10100.0
115.13037598652123,87.30462445685909,63.66416156779285,10133.333333333332
114.40870448473072,87.17596661293526,63.0433457725175,10166.666666666666
115.10347340296332,87.48091063660652,63.627244021463106,10200.0
115.13714752578001,87.4746174398834,63.6334709740102,10233.333333333332
114.8346728151076,87.6900966183575,63.471914800175675,10266.666666666668
114.53423661599471,86.9868032606301,63.348601013439094,10300.0
115.17896889983723,87.76868429155853,63.5518409360841,10333.333333333334
114.91312839673913,87.88971212635867,64.7239300271739,10366.666666666668
115.85567076292885,89.02852449223417,65.32878904249873,10400.0
115.51610778188619,88.79436015130266,65.15342768498449,10433.333333333334
116.86879409530012,89.16795831976555,66.13973732768913,10466.666666666666
117.87890417036378,89.87229370008873,66.32402395740905,10500.0
118.0480288789593,89.37901432942263,66.3216085932513,10533.333333333334
116.43029541169076,88.95294364131573,65.94223758642363,10566.666666666666
117.20647391577623,89.0849360988896,66.68045254556883,10600.0
117.15749770776027,89.09356505793112,66.79738684671167,10633.333333333332
117.19916517590937,89.13536076326773,66.16917965755175,10666.666666666666
118.36576168929108,89.50973928032751,66.87422969187675,10700.0
117.8962609182049,89.53031280925948,66.38959166989372,10733.333333333332
117.82531940607734,89.04173860497238,65.986252589779,10766.666666666668
118.23432984004411,90.00480970766684,66.29661334804193,10800.0
118.16838952972492,89.84287932564331,66.1392413487134,10833.333333333334
118.42538325871661,89.45532039976484,65.942364220142,10866.666666666668
115.67665217391306,88.14408695652176,64.31689130434783,10900.0
116.2466162162162,88.43995675675676,64.9878054054054,10933.333333333334
118.23180934292046,90.23210328765884,65.82519332519333,10966.666666666666
117.6103966870096,89.74197907585005,66.44339581516999,11000.0
117.64509625390218,89.86262140131805,66.60275754422476,11033.333333333336
119.13336340060889,90.77936633216822,67.07322133273199,11066.666666666664
117.76663944894585,89.8620270921006,66.80924565039885,11100.0
117.1523304281925,89.61109005936592,66.22089596227525,11133.333333333332
117.72053808260704,89.479579807166,66.67563471011746,11166.666666666664
117.45745213365036,89.63834313602804,66.40397530555208,11200.0
117.47540983606558,89.65575856171526,66.34282317607307,11233.333333333332
118.32683372054431,89.82056920013277,66.84415449717889,11266.666666666668
118.84751086442064,90.34744632330795,66.66350415214491,11300.0
120.00167514979704,90.99606984086077,67.62820265017288,11333.333333333336
119.70161717921528,90.89771120537293,66.5812787203959,11366.666666666668
117.75638187988785,89.82655620902634,66.22285461329287,11400.0
117.70426803424601,89.7252267525642,66.09470628125797,11433.333333333336
116.9656850459482,89.70119047619049,65.76205096073518,11466.666666666664
117.43951037205004,89.83268245569832,66.34931132947004,11500.0
119.38598002827857,91.09504241781548,66.92287469070344,11533.333333333336
119.4610358806279,91.03672158012763,67.84642918751078,11566.666666666664
119.77425488729835,91.58299326994978,67.96528148702062,11600.0
119.80382437773741,91.60910159171029,67.95637218245913,11633.333333333332
118.63930528691166,90.82761121856865,67.94513620245003,11666.666666666664
118.52497569275644,90.88911845730028,67.69921811699886,11700.0
119.01698500967116,90.8796139587363,68.09743713733076,11733.333333333332
119.00344352617078,91.14948954788528,67.63792335115865,11766.666666666668
119.95538872891814,91.34950637597694,68.1280337309749,11800.0
119.96711229946524,91.34296585767171,68.10818593171534,11833.333333333336
121.52146780927269,92.56580971215118,68.35611953416831,11866.666666666668
120.08881807145336,91.2342395074575,67.70794311481096,11900.0
118.25416229817571,90.81700566156428,66.71029565946739,11933.333333333336
119.0441767068273,90.83275035626377,66.70101913028458,11966.666666666664
114.1487744632339,88.32802584077524,64.33634809044271,12000.0
114.13792513775414,88.35855975679272,64.33005890176706,12033.333333333336
114.19841269841272,88.00582777394371,64.55266083889272,12066.666666666664
118.44411484496796,90.83559241295687,66.4123289450892,12100.0
119.40408303902146,91.39766560427256,67.90009906107329,12133.333333333332
119.97229559951036,92.02068165710972,68.23933165818353,12166.666666666664
121.35682406984085,92.241242679555,69.12546535170793,12200.0
121.37707864195393,92.30127316819679,69.28405941451585,12233.333333333332
120.67644660027472,91.88184666895607,68.73731541895604,12266.666666666668
121.11287634238457,91.72112158997405,69.32021013988228,12300.0
121.76567852437418,91.99642072902945,68.9231884057971,12333.333333333336
122.49381741646934,91.9914715425765,69.47459002017014,12366.666666666668
121.85678524374175,91.93741765480895,68.84986824769435,12400.0
121.86034255599472,91.95933245498465,68.82898550724639,12433.333333333336
121.23047498949137,91.624043715847,69.00348886086591,12466.666666666664
120.72090025359256,91.58125528317836,68.12411242603551,12500.0
121.07529782458565,91.55626294889505,68.16253021408839,12533.333333333336
119.61827322404372,91.1936393442623,66.88574863387979,12566.666666666664
117.33083200847906,89.49350291467937,65.66586115527292,12600.0
117.30317561807331,89.37350809889173,65.55483802216538,12633.333333333332
118.16865573770492,90.36222950819672,65.75331147540984,12666.666666666664
119.06358040859087,90.71981403876372,66.59861183865898,12700.0
117.2481804639285,90.05001064056181,65.54990423494361,12733.333333333332
117.85449735449734,90.5466952212984,66.90957000083985,12766.666666666668
119.8714209968187,91.91945033580772,67.5989749027925,12800.0
119.90460663092242,92.05696465696465,67.67827989933254,12833.333333333336
121.09700930438636,92.54069561364643,68.96021267168808,12866.666666666668
119.84462802805388,91.8144012736113,67.990254291984,12900.0
119.82592100896116,91.54754397610355,68.483135579157,12933.333333333336
120.2680639823497,91.84687513258942,68.30877423734566,12966.666666666664
120.46370023419205,91.6952549739435,68.66902968542314,13000.0
120.50220478089331,91.69628879464943,68.69846192797013,13033.333333333336
119.96301158622988,91.76650412603148,68.2312036342419,13066.666666666664
120.38163549039434,91.37213515335355,68.16232726659925,13100.0
121.77978084128668,92.72596323789324,68.43816277836692,13133.333333333332
120.3168610269957,91.63213280931214,67.80007731460601,13166.666666666664
117.68659951549152,90.11075693824642,65.82999702494794,13200.0
117.66277784861236,90.10841939733946,65.76467338178418,13233.333333333332
114.06805068226122,87.88189083820663,64.42766081871345,13266.666666666668
113.66098237274707,87.74127550009901,63.65056446821153,13300.0
113.77310874704493,87.6532899921198,64.06954294720252,13333.333333333336
112.69025254080692,87.5849052971974,63.84841777024946,13366.666666666668
116.42989284165756,89.6368798133504,65.93533334709805,13400.0
116.451365804307,89.64695558813206,65.95028183263477,13433.333333333336
118.70525568181816,91.40445354278074,67.24807820855615,13466.666666666664
119.96344140493078,92.12158054711249,68.49788922661264,13500.0
119.19361135397816,91.72822838087879,68.17449828185681,13533.333333333336
119.65268375241779,91.60080190199871,68.73565441650548,13566.666666666664
119.91330425299893,92.15010703178642,68.53281634961024,13600.0
119.89082757785047,92.15360071085259,68.54963851528737,13633.333333333332
119.82160854263316,91.64939609662451,68.47020476723722,13666.666666666664
119.75142679900743,91.6956782464847,67.56662531017368,13700.0
120.81417410714285,92.4177620701058,68.62477265211639,13733.333333333332
120.35532504348947,91.92865579966929,67.29456864892727,13766.666666666668
118.36848220769792,90.4875816993464,66.42369540408757,13800.0
118.41433118386244,90.52263144841272,66.4357638888889,13833.333333333336
115.03539805974742,88.78137511549124,64.52529257776409,13866.666666666668
114.10728406326037,88.11925942822384,64.48515434914843,13900.0
113.92439393939394,88.5157196969697,64.37346590909091,13933.333333333336
113.7886413843888,88.26283136966127,64.98155375552282,13966.666666666664
118.96192456317205,91.21851898521506,66.69012516801075,14000.0
119.00161710349464,91.24099042338707,66.68550487231184,14033.333333333336
119.81522040181521,91.42045720859876,67.74020495557875,14066.666666666664
120.53249462365594,92.09589247311828,68.15277419354838,14100.0
120.63697076612905,91.90238575268818,68.58719758064517,14133.333333333332
119.50589688421387,91.7088612638457,68.32038409435015,14166.666666666664
120.7722411278561,92.31575109382595,69.19261464916545,14200.0
120.82119996759035,92.36005104521149,69.22279614325069,14233.333333333332
121.15302889095993,92.606275240758,69.04461012736874,14266.666666666668
121.79634095634096,92.50444906444906,69.61245322245323,14300.0
121.70888523241464,93.11357466063349,69.49707939119703,14333.333333333336
120.77744519051856,92.07382088827765,68.81211067065772,14366.666666666668
122.68100546448088,93.23156284153005,68.77363934426228,14400.0
122.66867759562841,93.22439344262295,68.75307103825136,14433.333333333336
121.03790849673204,91.95707358212105,68.08009698503058,14466.666666666664
118.85619212962965,91.1008804563492,66.71943204365078,14500.0
119.77574032865455,91.12930075316672,66.79867767887711,14533.333333333336
114.6787192621014,88.71160715973309,64.69113727862097,14566.666666666664
114.8365391911374,88.53537825328172,64.96401472038849,14600.0
114.86628170289856,88.60175120772945,65.11413043478261,14633.333333333332
115.61350154235544,89.10830103614649,64.97739856046826,14666.666666666664
118.391040289873,90.73969077471024,66.99353550326313,14700.0
120.48926864652672,92.37299453831713,68.01038999829323,14733.333333333332
121.94324650681385,92.96478782128685,69.36945834052095,14766.666666666668
121.07786285092672,92.65398937282959,68.87835237019371,14800.0
121.09587464959624,92.67936488013054,68.86841554746664,14833.333333333336
120.4740331270404,91.94632377976728,68.99254942017664,14866.666666666668
120.2830985078176,92.2892812555734,68.8406555297941,14900.0
120.88281874900015,92.20996640537511,69.1377779555271,14933.333333333336
120.89210375112862,92.4469752934417,68.38178199129935,14966.666666666664
123.31470114492186,93.4036829045318,69.68336162988115,15000.0
123.318093132154,93.389199618453,69.70887530350329,15033.333333333336
121.50810381245165,92.92402283706629,68.45824706694272,15066.666666666664
120.14424019607843,91.85563725490196,67.94301470588235,15100.0
120.0923966169408,91.90320455607971,66.95824301925282,15133.333333333332
115.449913029728,88.5901723592663,64.6703036053131,15166.666666666664
114.835009733939,88.46041531473068,63.780134652822845,15200.0
114.8501784555483,88.44423264114211,63.769265087605454,15233.333333333332
115.06344771738031,88.33894118837941,64.31790667071566,15266.666666666668
114.96314678991259,88.63625037677082,64.26822063699386,15300.0
114.91141845881585,88.51785095987383,64.97058823529412,15333.333333333336
118.80340831061821,91.30714330302335,66.86156599180174,15366.666666666668
119.19174308236806,91.4190999034749,67.93538851351353,15400.0
119.24655845074692,91.3561422304878,67.87125270371344,15433.333333333336
121.48619554204664,92.91647669706181,68.71289260385005,15466.666666666664
122.43296842105265,93.15877894736843,69.8068,15500.0
122.81096123624936,93.25761742622663,69.3386808101973,15533.333333333336
121.83852213053262,92.23305826456614,69.20117529382345,15566.666666666664
121.02254216371864,92.06258741258742,68.62579185520362,15600.0
121.32180538062893,92.32250738133092,68.80509156979745,15633.333333333332
122.12223395270271,92.2327491554054,69.16442145270271,15666.666666666664
121.11741052631581,92.23425263157895,68.43037894736842,15700.0
121.01706137000255,91.81970970206264,68.13241660300484,15733.333333333332
118.2578686821358,90.5144131847536,66.61012080591603,15766.666666666668
119.45257222476215,90.6927045914702,66.575795179936,15800.0
119.4616071234189,90.6962096967322,66.58648466244313,15833.333333333336
114.68553346823792,88.10393603936039,64.05259294528429,15866.666666666668
115.07432215626505,88.00826247392908,64.31690197336755,15900.0
114.53471780604131,88.25971780604134,64.04676073131955,15933.333333333336
115.71521365471479,88.77533277371387,65.25616580725107,15966.666666666664
118.5669702540107,91.1532419786096,67.08328459224599,16000.0
118.93204005006258,91.54265748852731,67.43437630371298,16033.333333333336
121.52512432432432,92.59009729729729,68.92845405405406,16066.666666666664
122.85772682840131,93.59330845107971,69.73287123433751,16100.000000000002
122.79600155279505,93.11147774327122,69.96456608005519,16133.333333333332
121.0148675662169,92.28539896718307,68.89403215059136,16166.666666666668
121.4307666955053,92.06093189964157,69.29353602768508,16200.0
121.84631927212573,92.27249793217536,69.50254342431762,16233.333333333336
121.67768368722616,92.31005645433098,68.87729609032694,16266.666666666664
122.2616550611413,92.19346552309784,69.10854704483695,16300.0
122.37962427436113,92.81292976029819,69.17552428078744,16333.333333333332
120.69345654033084,91.5174276715129,68.25189295175319,16366.666666666668
116.86285285528878,89.02017764438676,64.9451857560026,16400.0
120.43062532478778,91.48007968127493,66.97157024077603,16433.333333333332
115.68947245836729,88.30423896587865,64.78007453126821,16466.666666666664
115.52752123361095,88.1078791127237,63.773666199389794,16500.0
115.86239225458557,88.10370113158217,64.37356509661343,16533.333333333336
115.50824175824177,88.38881827128095,64.14113498441857,16566.666666666668
115.14500876992298,88.56321970563562,65.21995348127814,16600.0
115.1905200007667,88.51461483909306,65.17165967071091,16633.333333333332
119.05434966216215,91.12293074324323,66.92016469594596,16666.666666666668
121.42052824714115,92.52737241850146,69.11802355350743,16700.0
122.16492084913138,93.19276824539983,69.60812287128077,16733.333333333336
123.37814300680985,93.2697965776148,70.13674262266457,16766.666666666664
121.60207663677888,92.28567501268822,69.03901624090679,16800.0
121.63853408898665,92.32500845880564,69.03639401116563,16833.333333333332
122.18471916765354,92.21407122314328,69.49162578243953,16866.666666666668
121.91930299441721,92.52778717645069,68.97415834884114,16900.0
123.66573689673064,93.34234993945684,70.26355734302024,16933.333333333332
122.46144159791577,93.11589231437256,68.98688666956143,16966.666666666664
121.6666310160428,92.31082352941178,68.36988235294118,17000.0
121.65032321800571,92.27496080579,68.35684985933037,17033.333333333336
116.02044044044044,88.84554554554553,64.6974174174174,17066.666666666668
115.0153251982415,87.90315953818974,63.91474588109618,17100.0
114.72699204872272,87.90321011673153,63.518588225342576,17133.333333333332
115.28456016286295,87.84690881817205,64.02515804135861,17166.666666666668
114.41689057156816,87.90406692721056,63.78924442273246,17200.0
114.44705666829508,87.92446262823644,63.77955544699561,17233.333333333336
114.45836712625034,88.23193527208126,64.6546943189279,17266.666666666664
114.62646457132229,88.41374372326577,64.87026222800819,17300.0
119.18823189840012,90.66369783935345,67.31640689427675,17333.333333333332
120.9142279051334,92.0451388164619,68.56846957718862,17366.666666666668
122.66031869413136,92.33978926458522,69.31288595241179,17400.0
122.37286021505376,92.09780645161293,69.15320430107526,17433.333333333332
123.54789414021627,93.2625784792466,69.84358650156959,17466.666666666664
123.40982798877536,92.79470042627938,70.05802968960865,17500.0
123.44678883296768,93.2622488923302,69.88441519335828,17533.333333333336
124.3018541246603,93.32035153852895,70.11979486280353,17566.666666666668
123.32782887700537,93.16727272727272,69.27075935828877,17600.0
123.32695187165777,93.17888770053476,69.23839572192513,17633.333333333332
121.31058617672792,91.76042578011082,68.23213764946048,17666.666666666668
117.43164730006836,89.43096377306904,65.31675445297736,17700.0
115.7260364024816,88.17178191380091,64.09856608734952,17733.333333333336
113.96741777695914,87.45723583225886,63.11164323284419,17766.666666666664
115.57422659924481,88.26228277430609,63.840108640448676,17800.0
115.54015501137192,88.27191026122287,63.84255967496191,17833.333333333332
115.04808459696727,88.15613638379001,63.60226567349472,17866.666666666668
114.08593109105824,87.76127973748974,64.05297374897457,17900.0
114.34156918112144,88.4251512706737,64.32073416700283,17933.333333333332
115.15206155060172,88.3499112250937,65.07914776089959,17966.666666666664
119.32575015960845,91.05343690146843,67.19516918493295,18000.0
119.33873164503086,91.07825069163653,67.21117258991275,18033.333333333336
120.70713684210527,91.68734736842106,68.72964210526315,18066.666666666668
121.83586825692088,92.27869569974831,68.72471824050771,18100.0
122.89628745115068,92.5626356925749,69.82555362570561,18133.33333333333
122.25089605734767,92.51591568527051,69.25672043010752,18166.666666666668
122.95243980396334,92.8552738120605,69.82910718090774,18200.0
122.98244193479653,92.86997656083528,69.85484764542936,18233.333333333336
123.0079556412729,92.9044446392566,69.4628298413255,18266.666666666664
123.03573061597751,92.66161517190321,69.41304679164762,18300.0
120.6777777777778,91.12258687258688,67.07539682539682,18333.33333333333
116.04127975345688,87.86894286525282,64.34870848708488,18366.666666666668
113.77260873054085,87.19100064195152,63.241373776279886,18400.0
113.7695193387899,87.20572540523192,63.23665944471193,18433.33333333333
114.5752387152778,86.99832899305555,63.13626302083333,18466.666666666664
113.48099678880922,86.5396999956011,62.200171556767685,18500.0
114.07052110249785,86.97413867355728,63.283699397071494,18533.333333333336
113.78491327148045,87.81290843081888,63.870754336425975,18566.666666666668
114.83993176769279,88.23381466201204,64.66847826086956,18600.0
114.93648457734872,88.44792402480181,64.9816537163488,18633.33333333333
119.19466128892357,90.9591465001301,66.7589990458843,18666.666666666668
119.82234575468706,91.40850964891884,67.87740694553064,18700.0
121.12058194266152,92.55100556268721,68.88806161745828,18733.333333333336
122.957338928228,93.04528367864323,69.63467086283767,18766.666666666664
122.41188313819893,92.93301236459128,69.06948243790349,18800.0
122.41847029215452,92.96669219827116,69.10018601597551,18833.33333333333
123.03010752688171,92.97318411235464,69.63199473337723,18866.666666666668
122.67869212201008,93.08356374807987,69.19653280667107,18900.0
122.89562927169037,92.81226328849418,69.27885159548997,18933.33333333333
120.18572631578951,91.5114105263158,67.78917894736843,18966.666666666664
120.33638830804823,90.55100769675668,67.01143391021934,19000.0
120.32595542109712,90.5304311073542,66.98418383236196,19033.333333333336
114.99734993220757,87.62214963638607,63.75056493693248,19066.666666666668
114.06619071902092,87.10661907190209,63.766751657317705,19100.0
113.25772403332712,86.76211847326975,62.90022647468263,19133.33333333333
113.47069597069596,86.63328338328337,63.210123210123214,19166.666666666668
113.91556594188171,87.73718756350334,63.893070514123146,19200.0
113.91551569140242,87.66727280156914,63.718228996404044,19233.333333333336
115.14042703443691,87.76016699206579,64.65990944211357,19266.666666666664
115.97643398873548,88.94085114170107,65.68546796527114,19300.0
119.55886247693476,90.77362422663627,67.80486269401932,19333.33333333333
121.65849263898045,92.45625137332456,68.94418809052955,19366.666666666668
121.98829091551785,92.1819105691057,69.25388829975256,19400.0
122.07724046140196,92.1834516415262,69.33429458740018,19433.33333333333
122.61971179270228,93.06546359950643,69.59626740701569,19466.666666666664
124.210883424408,93.45487249544628,70.37053734061932,19500.0
124.15059198542805,93.74298724954464,70.15892531876139,19533.333333333336
123.92517310699127,93.4501675228948,70.33906633906632,19566.666666666668
121.92111623818941,92.48004834102396,68.66211821577676,19600.0
121.55137323558377,92.2209650946493,68.47090491301017,19633.33333333333
120.94857438194504,91.72835730898441,68.26408390042211,19666.666666666668
120.25864055299542,91.20679723502305,66.74543601559729,19700.0
115.24286426648052,87.96774708287624,64.5733120574449,19733.333333333336
113.95890524569772,87.28069666182873,63.12228903172299,19766.666666666664
114.43956427910801,87.46694070496349,63.97878943582366,19800.0
114.44505189600248,87.45569828383516,63.97930325763025,19833.33333333333
113.75118692837324,87.36933511458227,63.32736614941938,19866.666666666668
114.06971604475405,87.56331274542694,64.3509284290704,19900.0
113.616995215311,87.86644976076555,64.41952153110047,19933.33333333333
118.3197866395733,90.1794936923207,66.89111844890355,19966.666666666664
118.6058955666695,90.75199203187252,67.39679579554124,20000.0
118.67083537507723,90.68983957219251,67.31378230393932,20033.333333333336
122.106846935139,92.36989932287956,69.19282341411261,20066.666666666668
120.8682033868791,91.85697183405165,68.6456836881285,20100.0
122.4473788024897,92.57462523012184,69.80948102042605,20133.33333333333
123.34477897034746,93.14448790249227,69.7083409132254,20166.666666666668
124.3030407264722,93.48236562098695,70.56255732893047,20200.0
124.34392771968443,93.46175013758943,70.59514309301045,20233.333333333336
123.04285394265231,93.28313172043006,69.72085573476703,20266.666666666664
122.1924630169528,92.73184321347587,69.6968793866753,20300.0
121.61255067865326,92.25240172748106,68.39269346025031,20333.33333333333
119.23521877886957,90.81756529772402,67.5513353489544,20366.666666666668
119.6353891006952,90.99825072886296,66.6333034312626,20400.0
119.6199372056515,90.99872168647678,66.5980264633326,20433.33333333333
113.53076923076924,86.79666333666334,63.39206793206793,20466.666666666664
113.2726131441843,86.59278555436991,62.66308873684431,20500.0
113.61277569704536,86.66933000416147,63.245547232625896,20533.333333333336
113.42547196393349,87.34516765285996,63.50923801473253,20566.666666666668
114.7130540376442,87.9646225460433,64.50352155434122,20600.0
114.75944140862171,87.94207650273223,64.56852863792754,20633.33333333333
115.00686210816956,88.70151859671918,65.11503167126847,20666.666666666668
119.45049335049336,91.33648648648649,67.71883311883312,20700.0
118.83490803728898,91.48834719072813,67.77364155538758,20733.333333333336
121.16634042553193,92.65306382978723,69.26225531914893,20766.666666666664
122.64165268636812,93.92753903729513,70.22284595861832,20800.0
122.68101260377682,93.94599303135887,70.27132533230093,20833.33333333333
123.03401732402658,93.64897821882096,70.5890169035405,20866.666666666668
121.0289435901704,92.43710855406894,69.2398926319732,20900.0
120.84456715933085,91.94904174110769,69.42699366574632,20933.33333333333
120.67614150555326,91.9988482106129,68.97215137803373,20966.666666666664
121.42300300802135,92.08604194518715,69.35258606283422,21000.0
121.45648813502672,92.0916610962567,69.39263034759358,21033.333333333336
122.06027426843754,92.78021811899364,69.26072778317676,21066.666666666668
122.58710642727036,92.99035042067827,69.73599184664758,21100.0
121.26383407687028,92.42469543582705,68.64072151681539,21133.33333333333
119.13852118408087,90.62044295934544,67.35683074154993,21166.666666666668
118.62495962097557,90.6883170022612,66.78277161623774,21200.0
118.6166899967697,90.69094433078493,66.80568536664154,21233.333333333336
118.72801196981524,90.355343047966,66.84567178419637,21266.666666666664
119.53366152783177,91.63652459299564,67.84702249859653,21300.0
121.59899091365692,92.29768047121135,68.79943838180904,21333.33333333333
120.0700891686336,92.1522423288749,68.5053326339715,21366.666666666668
122.38437294515111,93.10230596558056,69.806158311226,21400.0
122.43876833775481,93.11489014352765,69.84214225789628,21433.33333333333
120.0913342323922,91.83227476399703,68.47448557880541,21466.666666666664
121.25641749554796,92.26388828562742,69.56039612561352,21500.0
121.71993891209631,92.55518124242016,69.37530880833671,21533.333333333336
121.51277736644907,91.8572165758004,69.18007224428439,21566.666666666668
121.36912056226349,92.06007839250314,68.89173724995494,21600.0
121.30970810616768,92.106863207018,68.88784187027439,21633.33333333333
122.79668495656149,92.67825788751715,69.8160265203475,21666.666666666668
121.32539682539681,92.573336802845,69.19745858270447,21700.0
122.19055729663442,92.6058273152564,69.35661080074486,21733.333333333336
122.16958891664774,93.42518737224621,69.53047921871452,21766.666666666664
121.3267906336088,92.22320936639116,68.47233700642789,21800.0
121.31914600550964,92.19811753902664,68.44908172635445,21833.33333333333
118.80381193281413,90.89695799773679,66.74630011759747,21866.666666666668
119.10880413473534,90.79326323293527,67.13326501514881,21900.0
118.14296703296705,90.76714285714287,66.73490109890109,21933.33333333333
120.67583971308365,91.90086672644092,68.29852633514955,21966.666666666664
121.05867976297527,92.6628161674852,69.02741463189689,22000.0
121.08231306633465,92.68760231491088,69.03889695879735,22033.333333333336
123.27666818519673,93.32176852806484,70.0286282878174,22066.66666666667
120.49825233960988,91.83001465779682,68.74256398692074,22100.0
122.06083217108322,91.98310088331007,69.55269642026964,22133.33333333333
122.68484192811636,92.49008294266136,69.05039067195578,22166.66666666667
123.00194734944105,92.35747084986177,69.50147854309412,22200.0
123.02683014785428,92.35855271066237,69.53388628440918,22233.333333333336
122.80510888985464,92.44512047901878,68.9933603747163,22266.666666666664
122.10316053234995,91.90121267995178,69.07590478216676,22300.0
121.46778199883109,91.51989577245277,67.96288720046756,22333.33333333333
121.40474576271185,91.48106537530266,68.06920096852299,22366.66666666667
120.06115779645194,91.57408963585434,67.68669467787115,22400.0
120.36169714017817,91.84027191748709,67.87369901547115,22433.33333333333
120.18252550420759,91.31726294015327,67.7472380236002,22466.666666666664
117.17226738934055,89.80207768744354,65.93233965672991,22500.0
117.62475494564251,90.03027535198717,66.37711637854214,22533.333333333336
116.9420001342072,90.03898718321516,65.82320441988949,22566.66666666667
117.74788573999099,90.22156995051728,66.5657894736842,22600.0
117.35510604170379,90.01403493138477,66.46275173765818,22633.33333333333
117.74685792349727,90.62627504553734,66.61757741347905,22666.66666666667
119.89507735583685,91.78066104078762,68.28098921706517,22700.0
121.09550784437141,93.0173904935077,69.09546122106441,22733.333333333336
121.75623572194507,92.5258753321833,69.51470931045736,22766.666666666664
120.1710023038898,91.73717762319099,68.66680832979175,22800.0
120.17001811796813,91.78146598966605,68.62900664325497,22833.33333333333
121.92300824175823,92.22374084249084,69.65657051282051,22866.66666666667
121.94232696925192,92.32053523556424,69.15830943888851,22900.0
122.2625588697017,92.17113768584358,69.46966478899252,22933.33333333333
120.87622903412377,91.80918272011392,68.76168972727677,22966.666666666664
122.01636439927269,91.8675462725535,68.75812392186116,23000.0
122.02631824327473,91.859317450697,68.75595598862418,23033.333333333336
121.98060486522024,92.51894899971823,68.88299520991829,23066.66666666667
121.25094877778564,91.57263748438349,68.17792235344035,23100.0
118.63711805164057,90.4982072386966,66.57000789265983,23133.33333333333
115.33710455083742,87.97874725088819,64.94954322449671,23166.66666666667
114.46577358732054,87.57695343330704,63.94396211523283,23200.0
114.48693157671056,87.66614959626007,63.97932426689333,23233.333333333336
114.85763078620221,87.70340277483135,64.51022529593958,23266.666666666664
114.73138744334395,88.3283951653517,64.68698589894242,23300.0
119.37573461891644,90.95112488521579,67.58078512396693,23333.33333333333
120.9638536935214,92.17002151565865,68.28510638297873,23366.66666666667
122.44151541342552,92.6201382886776,69.45983386151926,23400.0
122.5089311437626,92.6173052914626,69.47904062229905,23433.33333333333
122.48343066039976,92.87867350329962,69.30508474576271,23466.666666666664
121.10734463276836,91.5947757268007,68.86461263981336,23500.0
120.37490887552393,91.3792828503736,68.2603654091489,23533.333333333336
121.33924731182795,91.7815188172043,69.36713709677419,23566.66666666667
121.12671154983394,91.86837556293501,68.74134558522495,23600.0
121.07111030692332,91.96713636260829,68.77547327709047,23633.33333333333
120.95235178000135,91.29532820547728,68.72039570712228,23666.66666666667
120.97617119722383,91.5955118565645,68.09198380566802,23700.0
122.25173155568164,92.30435193721485,68.94071342457983,23733.333333333336
120.75666230833237,91.86050160465946,67.94170925947938,23766.666666666664
118.77514546002456,90.03984793342451,66.67254688333063,23800.0
118.77166897187644,90.10417242969109,66.768948824343,23833.33333333333
117.6579534220751,89.66135595558315,65.5716716095363,23866.66666666667
117.9366452314102,89.61348609727379,66.15632641970835,23900.0
117.23834940569634,89.60852209015475,65.74675936308589,23933.33333333333
118.10630618203557,89.70818677150149,66.37276133986252,23966.666666666664
119.69229670538944,91.09426775852221,67.39868596457818,24000.0
119.72957531898686,91.134688630737,67.41434964768615,24033.333333333336
120.35461790904829,91.1309423347398,68.38023909985935,24066.66666666667
121.8549800038088,92.25373738335556,69.0583936393068,24100.0
120.93412350968704,91.10704638599104,68.53835227272727,24133.33333333333
119.80835164835163,90.38970503181032,67.53575477154425,24166.66666666667
120.43262921348317,90.78417977528092,68.51287640449439,24200.0
120.47613483146068,90.81083146067415,68.54,24233.333333333336
120.00040611885746,90.76982085645956,67.92601868146744,24266.666666666664
120.29368663594471,90.42290322580645,67.7252073732719,24300.0
121.84286909742977,91.60502092050207,68.07751344889421,24333.33333333333
120.49897721989772,90.89270106927013,67.86975825197582,24366.66666666667
120.44599110470007,91.05091958168049,67.13124173578555,24400.0
120.4275033056858,91.03522057939655,67.12008654886404,24433.33333333333
118.65057140870209,89.83970421196597,66.31762442337559,24466.666666666664
118.4479981378026,90.12891061452514,66.06629422718808,24500.0
118.7941573556797,90.03063314711359,66.43293761638733,24533.333333333336
118.27346703550025,90.33958045182108,66.47392807745504,24566.66666666667
120.32551083297777,91.30441378656427,67.93561845161902,24600.0
120.39469355646143,91.23561944265656,67.90040287015185,24633.33333333333
119.96162901834629,91.60227987971186,68.11159288528334,24666.66666666667
120.88357354114832,91.54194638749355,68.5324163184827,24700.0
121.21403882575756,91.68932291666668,68.4170928030303,24733.333333333336
120.25029036004645,90.4173519163763,67.96857142857142,24766.666666666664
119.90361528592376,90.40320289589441,67.66236711876833,24800.0
119.9376603739003,90.42886271994136,67.63361436950147,24833.33333333333
120.5965909090909,90.44831378299119,68.13934200879766,24866.66666666667
120.3796655580192,90.50485033259424,67.6216509608278,24900.0
121.11759766763849,90.5270670553936,67.8617609329446,24933.33333333333
122.73380077369438,92.00778529980656,68.5651837524178,24966.666666666664
120.62138446538836,90.50847300246063,67.98342541436465,25000.0
120.60255669340485,90.54048868443562,67.99038350401072,25033.333333333336
120.84651806526807,90.74123445998444,67.32995823620824,25066.66666666667
119.29080794328905,89.71069433359936,66.75965917093096,25100.0
118.21474194601149,89.39274558254465,65.71313347941629,25133.33333333333
118.49789325842696,89.26109550561799,66.15931647940076,25166.66666666667
118.05039794007492,89.36102528089891,65.7308754681648,25200.0
118.04763576779028,89.35798220973784,65.70809925093633,25233.333333333336
119.26647913736521,90.17423816221284,67.09690576652602,25266.666666666664
120.81512049373043,91.18674079153604,67.61380779780563,25300.0
120.46095278504585,90.94675058340994,68.1965678994885,25333.33333333333
121.53320406013596,91.86976922340322,68.53081011203678,25366.66666666667
122.7692103676914,92.04465340566608,69.30107293550331,25400.0
122.89329297820822,92.07196125907991,69.35222760290557,25433.33333333333
121.70951972146706,91.6271998855344,68.41801402203464,25466.666666666664
122.29612068965518,91.72150383141762,68.73931992337165,25500.0
122.97162310030392,92.59078419452887,68.95489361702127,25533.333333333336
122.76503164556965,92.41462888377443,69.20078154967396,25566.66666666667
121.63035630567276,92.18640412564464,68.63858415377402,25600.0
121.63216127519924,92.179676511955,68.62290201593999,25633.33333333333
120.37144236516623,90.92303094395143,68.19635385534967,25666.66666666667
120.11734200787308,90.83655092756287,67.33620913183886,25700.0
118.616969273743,89.35181564245809,66.27912011173184,25733.333333333336
117.50249665939941,88.77380031413367,65.13582764845161,25766.666666666664
118.13622159090907,88.89464962121212,65.61382575757575,25800.0
118.14827178030303,88.8761600378788,65.65222537878788,25833.33333333333
117.599302150132,88.89996699358733,65.15218313843832,25866.66666666667
117.69400711020822,88.87333210212843,65.93418440371208,25900.0
115.98935342064293,88.0061589889184,64.9616952101841,25933.33333333333
117.60252887481371,88.48903222801788,65.94995808494784,25966.666666666664
118.8964783565664,89.36933235509905,66.35710442651015,26000.0
118.84740892265732,89.39484706799144,66.34336645236704,26033.333333333336
119.57191213715176,89.27829729203195,66.82227742061173,26066.66666666667
120.36384765332134,89.88211625930923,66.84852801519469,26100.0
121.25968171068192,90.27830607016159,67.78712554197871,26133.33333333333
121.37127659574469,90.67340425531914,67.60447798119742,26166.66666666667
122.26061963419187,90.87644643523704,68.10683090705486,26200.0
122.2749782257061,90.90832400149307,68.12014433246236,26233.333333333336
121.8008967284194,91.08016357903034,67.75699645250296,26266.666666666664
121.5454769412692,90.26438707134407,67.58297201418999,26300.0
119.36815329022444,89.52897965005705,66.39282997337389,26333.33333333333
118.78853348297793,89.04994388327721,66.10325476992142,26366.66666666667
117.14427089271463,88.54878577129179,65.19945274199065,26400.0
117.10489111845855,88.59496066583056,65.20731957587505,26433.33333333333
115.71263853367434,87.86182864450127,65.02853793691389,26466.666666666664
115.90957650563948,88.63781655671421,65.1467546286444,26500.0
116.0662830349531,88.31709292412617,65.33461210571184,26533.333333333336
115.25023536460115,88.20973125641903,64.75774563505648,26566.66666666667
117.01049681770685,88.08720433171844,64.90491118077325,26600.0
117.07309774864636,88.10739051961625,64.96703714258574,26633.33333333333
116.09733656174336,88.06544448287791,64.79372766055576,26666.66666666667
119.35607934429407,89.46423201901159,66.70236189921917,26700.0
120.40097744920489,90.29653427274306,67.13996874147213,26733.333333333336
121.29787234042554,90.50070921985815,67.97055514795794,26766.666666666664
121.3328550222662,90.56412666996536,67.46506679861454,26800.0
121.35724888668976,90.56462147451755,67.50524492825333,26833.33333333333
121.81702127659572,90.53503216229588,67.76724393864423,26866.66666666667
121.34368361246972,90.64939973321476,67.43088286151871,26900.0
121.189511027314,90.05539705772905,67.32168994517353,26933.33333333333
119.80789107533293,89.53349234744583,66.02005068574836,26966.666666666664
117.90778571428572,88.34466666666668,65.52716666666667,27000.0
117.91804761904764,88.32635714285715,65.55823809523811,27033.333333333336
116.27946562734785,87.67986945905335,64.36767468069121,27066.66666666667
117.29291187739464,87.89497126436783,64.77083333333333,27100.0
115.7895770530739,87.67100575500137,64.15467708047866,27133.33333333333
115.73792775880398,87.37979779702803,64.48205278990342,27166.66666666667
113.9687554508983,86.90173120530262,63.80976364904936,27200.0
113.95637100994243,86.91511861154719,63.8171768707483,27233.333333333336
116.40302243211336,87.74325855962219,64.95891381345928,27266.666666666664
117.06586740883465,88.44332643497705,65.22455339089893,27300.0
118.90335214556778,89.31641043105967,66.41575848983166,27333.33333333333
120.89499748617395,90.64763700351936,67.26065862242332,27366.66666666667
121.47767638112059,90.82136198606614,68.20783043862231,27400.0
121.54712491413991,90.83075753115492,68.26771170640761,27433.33333333333
121.38196757717077,91.22619488242408,67.69938559478868,27466.666666666664
121.8890369383374,91.10104374861204,68.09872430725196,27500.0
121.21015619216818,90.96688627334863,67.48834110592938,27533.333333333336
121.34571994062344,90.72493814943095,67.61729341909945,27566.66666666667
119.66585712883915,89.81257972721028,66.19603081150034,27600.0
119.72221127315727,89.83238076468271,66.1784834450138,27633.33333333333
118.79014285714285,89.17647619047621,66.05914285714286,27666.66666666667
116.65837761729573,88.3843166643957,65.0126493164373,27700.0
116.94448520981426,88.13930291217609,65.07002980967667,27733.333333333336
115.34406635752077,87.84078984608016,64.5848083077526,27766.666666666664
115.5157867494824,87.90398550724638,65.02997757073844,27800.0
115.53385955831608,87.88927708764666,65.02534075224293,27833.33333333333
116.62203498488873,88.678587782764,65.00535763348293,27866.66666666667
115.99475680499776,88.0338911200357,65.28752788933512,27900.0
117.73363903586126,89.19574368018812,65.85540270429159,27933.33333333333
119.35444518716578,89.7217580213904,67.19463808250572,27966.666666666664
120.7999301327478,90.52904481485176,67.38037728316199,28000.0
120.80359816348935,90.5924992514223,67.37381475197125,28033.333333333336
121.1636226378336,90.63705435417884,67.99476427040715,28066.66666666667
121.64552275889488,91.15546114092622,67.79320711588153,28100.0
121.6116654438738,90.864098801663,67.97732942039619,28133.33333333333
120.19000607902737,90.36372036474165,66.93653495440729,28166.66666666667
119.36369747899158,89.56941176470586,66.60408163265306,28200.0
119.4357262905162,89.55783913565426,66.63030012004803,28233.333333333336
117.45158811475409,88.73232581967213,65.3021842399404,28266.666666666664
116.55492372339457,88.17191924728235,65.01304010231114,28300.0
116.67492339121551,88.70129538490109,64.76388244033801,28333.33333333333
113.28190416141236,86.69514501891554,63.66696090794451,28366.66666666667
113.77373687051106,87.85423672520443,64.22889940631876,28400.0
113.94699712052652,88.11285479226655,64.44995886466475,28433.33333333333
112.84899678805323,86.72752680098446,63.56298752763526,28466.666666666664
113.85554098360657,87.66104918032784,64.02740983606557,28500.0
116.29486802524146,88.71707416370752,65.48691561305499,28533.333333333336
115.70605063975492,88.70104973869171,65.33348351054244,28566.66666666667
118.73696209746369,89.95312054716446,66.85245084069535,28600.0
118.72913813459269,90.0375678866588,67.02587957497049,28633.33333333333
119.23438693659278,90.60795454545456,67.01091004583651,28666.66666666667
121.35939188525394,91.27009038215937,68.11791433343157,28700.0
121.34998526377838,91.49548089203262,67.87732095490716,28733.333333333336
121.89937658289499,91.49473991817648,68.4264075589324,28766.666666666664
121.7971702707968,91.72878920709135,68.19883596337424,28800.0
121.79052211182542,91.71615039937656,68.15371127995324,28833.33333333333
121.72758135700084,91.19806974150057,68.32397303457975,28866.66666666667
121.25326571004452,91.08814943097477,67.50994557149926,28900.0
119.8126530612245,89.89752701080431,66.98645858343338,28933.33333333333
117.88669098391321,89.2183174335952,65.64197530864197,28966.666666666664
117.52637188208617,89.17448979591838,65.98718820861679,29000.0
117.54544217687076,89.15705215419503,66.01129251700682,29033.333333333336
118.03080018939394,89.47663352272724,65.45366950757575,29066.66666666667
114.57647349173227,86.97051894729755,64.01101613156537,29100.0
112.76467021783381,86.3230695942142,62.7927764063921,29133.33333333333
113.44442282749675,86.56344574146131,63.65903588413316,29166.66666666667
114.07590137084652,87.3024612416145,63.792219155953426,29200.0
114.04244912611338,87.32245181844696,63.815934127571744,29233.333333333336
117.70209439731475,89.7317516150539,66.28710025978803,29266.666666666664
115.08637777777778,88.35593333333334,65.0064888888889,29300.0
118.3768033678634,89.68220519369946,66.64110023177712,29333.33333333333
118.51468785364014,90.23451056205204,66.76209449264428,29366.66666666667
121.18422733077908,91.3207584242067,68.15593378524413,29400.0
120.85830276351187,91.07432134996333,68.00215211543164,29433.33333333333
120.62283303194694,91.39592525617843,67.86546112115732,29466.666666666664
121.31025592055003,91.72884835752485,68.58895148968678,29500.0
121.32745027124771,92.00962025316456,68.15773357444243,29533.333333333336
121.98051282051279,92.0561904761905,68.66075702075703,29566.66666666667
120.23140278838808,91.26358384262795,67.51673510313215,29600.0
120.1669836439711,91.2761030810194,67.47175732217572,29633.33333333333
119.36177024482107,90.34463276836159,67.20776836158193,29666.66666666667
120.05769940064545,91.54741816505305,67.70426463808207,29700.0
118.3253943637008,90.19953030840128,66.836183977313,29733.333333333336
118.10852069641416,89.86943387524502,65.68894269572236,29766.666666666664
114.76687672651931,87.39619302486187,64.4733252762431,29800.0
114.83674785562269,87.43665756605112,64.51873508609755,29833.33333333333
113.6729301233118,87.2789195537287,63.882518245113666,29866.66666666667
113.93469507591644,87.23886418924587,64.20832983810084,29900.0
114.18880242109816,87.51718547341116,63.91102464332037,29933.33333333333
118.21134824451971,90.13780965959722,66.87856442701836,29966.666666666664
117.17151890096892,89.31253696037848,65.95880907974343,30000.0
117.16715189009687,89.36102897693672,65.98291861893281,30033.333333333336
119.2675269229847,89.93975007795072,66.89441872736431,30066.66666666667
118.41938108855874,89.85733882030178,66.68222082723024,30100.0
120.28517720306513,90.38299808429122,67.61994731800766,30133.33333333333
120.41582066352552,90.60521202700731,67.27699519114003,30166.66666666667
120.86291059491177,90.75571105660559,67.82736978790939,30200.0
120.94974886506328,90.74961363855888,67.88165266106444,30233.333333333336
120.66772916062979,90.95566502463056,67.40997778421713,30266.666666666664
119.90726799242424,90.2146543560606,67.20329071969697,30300.0
120.19778699861686,91.3257030889811,67.61021207929922,30333.33333333333
118.77372425145704,90.22892289896342,66.9452551497086,30366.66666666667
114.7991546914624,87.92721893491125,64.28153000845309,30400.0
114.71443421443422,87.86898044040902,64.15794051508337,30433.33333333333
114.52479622479622,87.34723294723294,63.98067353067354,30466.666666666664
113.21523853538643,87.0246413041195,63.284309812406775,30500.0
113.92258842954212,87.2673736796427,63.96145297516989,30533.333333333336
113.20673076923076,87.3289418914419,63.70914502164502,30566.66666666667
114.32158067158069,87.9456592956593,65.06965601965602,30600.0
114.3693488943489,87.97856265356266,65.08880016380017,30633.33333333333
117.44451164874552,90.0204077060932,66.06512096774193,30666.66666666667
117.90918681318679,89.81731868131868,66.77107692307692,30700.0
119.1625177089658,91.0450426139558,67.49960646742674,30733.333333333336
121.01135940409685,91.42770018621971,68.36131284916199,30766.666666666664
120.83551836355184,91.67336122733612,68.0805439330544,30800.0
120.9142610037166,91.65372478436687,67.97847175147847,30833.33333333333
121.44679218967924,91.69311947931196,68.58684332868434,30866.66666666667
121.01278475127847,91.696490004649,68.1533240353324,30900.0
121.05088815329384,91.23854258939812,68.09443330691407,30933.33333333333
120.09223144306131,90.99619640387274,67.45871369294606,30966.666666666664
118.44744670856913,89.50233744156397,66.65273894468429,31000.0
118.48582995951418,89.4899903818194,66.7182320441989,31033.333333333336
118.18197831978321,89.6424570912376,66.103342366757,31066.66666666667
114.021992481203,86.60687134502926,63.66689640768588,31100.0
112.3339670468948,86.04212082805239,62.484600760456274,31133.33333333333
112.14903320722992,85.78787305590585,62.912631357713316,31166.66666666667
111.86269451269452,86.23142915642916,62.9989352989353,31200.0
111.86805896805895,86.2639434889435,63.00765765765765,31233.333333333336
114.82064048189808,88.17817116397238,65.27395660458541,31266.666666666664
112.51724419745017,86.7931513566525,63.53624550506702,31300.0
113.78830023964396,87.04232283464566,64.39875042793564,31333.33333333333
116.4730319388214,88.94604138551506,65.33924876293297,31366.66666666667
116.67788514450486,88.85963329004423,65.86643481323325,31400.0
116.71117751217352,88.78439575033201,65.83937583001328,31433.33333333333
116.47516030974728,88.93075062681666,65.67137056513346,31466.666666666664
117.91806361000364,89.4226395433128,66.36650507430228,31500.0
118.68181818181816,90.09960718294052,66.42695473251028,31533.333333333336
119.46027462121212,90.16515151515152,67.05814393939394,31566.66666666667
118.98963068181818,90.17173295454545,66.61889204545454,31600.0
118.9659090909091,90.18806818181818,66.57386363636364,31633.33333333333
119.42736204511853,89.85865884485143,66.70141174226164,31666.66666666667
119.6587367450438,90.8467266021208,67.12402028584603,31700.0
118.31959201019976,89.492383743038,66.492696893104,31733.333333333336
117.72271662763464,88.91107728337236,64.98215456674473,31766.666666666664
113.10768965368528,85.72316384180792,62.74013455815761,31800.0
113.09813688704878,85.73064648294303,62.70427394660801,31833.33333333333
112.89581760531479,86.18295550139126,62.64731131770238,31866.66666666667
113.12378261521008,86.08585372118411,63.092168068665856,31900.0
112.48117870722434,86.1723700887199,62.79541613857204,31933.33333333333
113.43221801346802,86.5406355218855,63.72720959595961,31966.666666666664
113.71322385479687,86.74312878133102,63.649027657735516,32000.0
113.74295592048401,86.76681071737251,63.65507778738115,32033.33333333333
117.8590222222222,89.49475555555556,66.63631111111111,32066.66666666667
118.74748664070285,90.54492346707724,67.06337741146635,32100.0
120.39820763500931,91.14164338919923,68.09480912476722,32133.33333333333
119.27911183466742,90.92931759598429,67.7098991543436,32166.666666666664
120.18892277143463,90.57563293383447,67.80828782828641,32200.000000000004
120.2261778124483,90.58376474481716,67.8465829846583,32233.333333333336
120.11458333333331,90.99157196969696,67.55700757575758,32266.666666666664
121.71417217923843,92.00399710151704,69.09464481896168,32300.0
121.45904230590423,92.31148303114831,68.8971641097164,32333.333333333336
121.8511184970417,92.11423048817858,69.12292860005186,32366.66666666667
121.05637407484264,92.2388001198958,68.86495584607225,32400.0
120.65564586490332,91.99967855994858,68.64696698351472,32433.33333333333
120.88081018518518,91.55349537037036,68.35590277777777,32466.66666666667
118.22296124927703,90.24191395648886,66.69288606130712,32500.0
118.54288007337769,89.7521440036689,66.29844072460446,32533.33333333333
114.15505876831844,87.36547281298662,63.79607073529725,32566.66666666667
113.76512767824656,86.74637727691089,63.53845330593549,32600.0
113.763800595047,86.76007620026114,63.53802521458079,32633.33333333333
113.68597442851608,87.01263506823368,63.26856515562444,32666.666666666664
113.84809992140535,86.81834016611081,63.69105932833442,32700.000000000004
113.24728441127695,87.06502902155887,63.49585406301824,32733.333333333336
114.1963245088245,87.30342574092575,64.50156093906094,32766.666666666664
117.87667039106148,89.89307262569834,66.06493854748604,32800.0
117.87988826815644,89.91416759776537,66.07278212290504,32833.333333333336
117.88474517608377,89.61724495976463,66.71545383750107,32866.666666666664
118.19594051883207,90.42088353413656,67.06961901660696,32900.0
121.21501511127391,91.57470922245628,68.46435113105596,32933.33333333333
119.9442659743003,91.4444640028164,68.14385671536701,32966.66666666667
120.64784208765472,91.40631203300993,68.46887476301995,33000.0
120.62526619343392,91.5032165039929,68.59139307897073,33033.33333333333
121.03510628715547,92.0628490362097,68.32892722032068,33066.66666666667
120.17554383651944,91.3313996923753,68.11217314875853,33100.0
118.57222616093584,90.2672367954626,66.43433179723502,33133.333333333336
115.2599117108113,87.81621689155425,64.76370148259204,33166.666666666664
114.45397435897436,87.46777777777778,63.608952991453,33200.0
114.45700854700857,87.48239316239317,63.58301282051282,33233.333333333336
113.34363356032377,86.6471155081588,63.21435607520665,33266.666666666664
112.96466610312763,86.92020287404901,63.00367709213863,33300.0
112.85750211327135,86.6787616229924,63.430219780219794,33333.333333333336
112.88521894771894,87.21572177822178,63.46078921078922,33366.666666666664
113.2640118920503,87.0330590624542,64.03490149278731,33400.0
113.34872564968923,87.13027155549996,64.0786092687607,33433.33333333333
113.16460055096421,87.71611165127209,64.35766083292822,33466.66666666667
117.36469856501844,89.86774179217203,66.53023235150384,33500.0
116.83279923783128,89.88537155724926,66.20665165425255,33533.33333333333
119.09961291477413,91.04712147316134,68.04508536012351,33566.66666666667
119.3364978423802,91.29093799682036,67.80127186009538,33600.0
119.30480256618776,91.39588416011566,67.90966386554622,33633.333333333336
119.3208839091192,90.91774487572805,68.23789515806322,33666.666666666664
118.88935378893535,91.04412122822164,67.68614819242434,33700.0
119.46468591208642,90.972152572836,67.8134111434087,33733.333333333336
117.38972011969723,89.45458546030628,65.64401073754621,33766.666666666664
117.70173788408137,89.23671951984234,65.8595807578608,33800.0
117.68664337543673,89.22780614530144,65.89617486338797,33833.333333333336
115.672599428697,88.31351351351351,64.57644473742035,33866.666666666664
113.14108196309778,86.50575289736831,63.5,33900.0
112.24183130699087,86.5274611617697,63.131691151637966,33933.33333333333
112.278548514769,86.4307794858976,63.556263800358295,33966.66666666667
112.28965373383396,86.75181476846058,63.43815185648728,34000.0
112.28014184397163,86.75527743012098,63.45137672090114,34033.33333333333
112.58188848188848,86.8980463980464,64.18268213268213,34066.66666666667
112.04339470949272,87.07606329784106,64.10912406612154,34100.0
117.17693973135384,89.63637769529869,66.4735993283846,34133.333333333336
116.88597782781916,89.80885155032045,66.29789537502165,34166.666666666664
117.50468701408329,89.55928739615265,66.85830112399485,34200.0
117.53973965969169,89.57885734595051,66.9035719045715,34233.333333333336
118.47700027245482,90.48358459722095,67.11456725093089,34266.666666666664
119.13387978142076,90.56480603350948,67.64216682473017,34300.0
119.0439108216886,90.85845430289876,67.27682811016146,34333.333333333336
118.82910672465708,90.39710047953608,67.32592840414854,34366.666666666664
120.47849063392476,92.02556837347366,67.88304211922913,34400.0
120.55182684218904,91.91489893822613,67.65577609530955,34433.33333333333
117.72219621196001,89.98891253458183,66.59259416897213,34466.66666666667
118.28852903283129,90.52139144342264,66.32873517259763,34500.0
113.23895989591308,87.62526787080972,64.45009949487219,34533.33333333333
114.01062653562654,87.96179361179361,64.22555282555281,34566.66666666667
114.20811830698624,87.83022947475777,64.74168281489037,34600.0
114.24909739928609,87.81482916879145,64.78233554309026,34633.333333333336
113.35768857627941,87.86112458565769,64.13748079877111,34666.666666666664
113.71947247798641,87.85617787784972,64.67703349282297,34700.0
112.26111631391646,87.59009177748642,64.30378348005245,34733.333333333336
114.30263157894736,88.41549185463656,65.78152412280701,34766.666666666664
115.9627322635135,89.15221706081081,65.8411106418919,34800.0
115.942504222973,89.21564611486488,65.83581081081081,34833.333333333336
118.85272727272728,90.86577540106951,67.97640641711229,34866.666666666664
119.79207501781895,91.59544280114042,68.14834283677834,34900.0
119.96387059707428,91.37503867061476,68.80001767799531,34933.33333333333
119.07500864902264,91.20521968517558,68.20508994983567,34966.66666666667
120.20703367990757,91.33304452146095,68.7736381409402,35000.0
120.24680085310585,91.35157291388964,68.79545454545455,35033.33333333333
120.33412365081516,91.71397281307863,68.24965000225804,35066.66666666667
120.37608617755085,91.38289438323031,68.26567678939354,35100.0
117.90084822002314,90.06470890631023,66.58225163860686,35133.333333333336
115.3358722892042,88.28559306983446,65.24168755056535,35166.666666666664
113.46636735979835,87.36271266540643,63.75328843730311,35200.0
113.45705340264652,87.37659499054821,63.772920604914944,35233.333333333336
113.94629663739995,87.27547532797121,64.02022062585702,35266.666666666664
113.70844416950199,87.52475512939478,63.76506856376947,35300.0
114.27679867302507,87.68291519800955,64.39852788720712,35333.333333333336
113.21036750483559,87.96361702127659,64.54862669245648,35366.666666666664
115.31256388241549,88.7173637515843,65.74941739237092,35400.0
115.31256669129114,88.67651645735859,65.73811868997785,35433.33333333333
117.38983525358026,90.35240658985678,66.79134273715947,35466.66666666667
118.9473796791444,91.32485561497326,68.17097326203209,35500.0
120.03987441130295,91.89993272034089,68.21551917470285,35533.33333333333
120.22971401498836,91.9041045740374,69.22157377896461,35566.66666666667
120.70365945395815,92.23507677330856,68.94552856321076,35600.0
120.66233137474968,92.339759248256,68.99542263594552,35633.333333333336
121.01247135554381,92.15168341265644,69.35549973558963,35666.666666666664
119.82484090410358,91.51696291419796,68.22734254992321,35700.0
120.70910072185116,91.38952978479394,68.35130090624928,35733.333333333336
117.1601853032428,89.4698882230439,66.28792128862256,35766.666666666664
118.54250424372377,89.97549807915662,66.63229250424372,35800.0
118.56099794514427,89.96017600285894,66.63935048691147,35833.333333333336
113.25280590220548,87.23267404442352,63.859959971744786,35866.666666666664
114.83487673632835,87.74398281399908,64.47509698410713,35900.0
113.66906010656011,87.39783133533133,63.62169080919082,35933.33333333333
114.30897156278836,87.57073651539301,64.16078768559684,35966.66666666667
113.60771650935585,87.48936082132803,63.835361814870005,36000.0
113.59691174035437,87.51349561185627,63.84631147540984,36033.33333333333
113.69602339640421,87.73147130407473,64.93554212137866,36066.66666666667
117.3975903614458,89.96553245950838,66.30169027759389,36100.0
117.79567593252554,89.96431888377718,67.01274325579385,36133.333333333336
118.86949950338987,91.07021634926805,67.82251586993135,36166.66666666666
121.13342190596286,92.04114123581336,68.94377139254189,36200.0
121.13226731165459,92.07238197617129,69.08192242228792,36233.333333333336
119.89718743133379,91.72746649088111,68.33328938694792,36266.66666666666
120.26776387974544,91.6770682466535,68.87390827298663,36300.0
120.25414230557087,91.99905129619415,68.57180364037507,36333.333333333336
121.22761664564943,91.9868942532877,68.74668978562421,36366.66666666666
119.23761833800842,91.09561272791024,67.42862464936886,36400.0
119.24349140953716,91.10288832398315,67.42371581346423,36433.33333333333
118.25100401606426,89.99836301728655,66.69100314300681,36466.66666666667
115.27397202561512,88.2360970677452,64.6576508257499,36500.0
113.82953097627008,87.15788740245262,64.22481684981685,36533.33333333333
114.09459741779129,87.4036058998036,63.8942255463168,36566.66666666667
114.17453345705742,87.22416743994226,64.30761934220023,36600.0
114.18810186617176,87.22408495721209,64.30629961851737,36633.333333333336
113.66408792288328,87.34827367430056,63.8213503612288,36666.66666666666
113.80939564472722,87.0530544001305,64.13496044368323,36700.0
113.69822557868238,87.30736169951496,63.914533063179206,36733.333333333336
113.74691504979566,87.23229377455064,64.47908979089792,36766.66666666666
117.37426554415505,89.45974743488556,65.82388406559677,36800.0
117.34782417292156,89.41931720631287,65.81072395500871,36833.333333333336
118.11684092767092,89.71552428897208,66.83496837485478,36866.66666666666
119.21187452512754,90.91783349614677,67.67660913925974,36900.0
120.91097114267843,91.39609577414456,68.57191994996873,36933.33333333333
120.08076752440107,91.26510647737356,68.16834516415263,36966.66666666667
120.8976529606737,91.33122816447191,68.60203350353848,37000.0
120.93684493415749,91.32621159186598,68.614933261668,37033.33333333333
120.2766260518934,91.3641961781206,67.890668828892,37066.66666666667
118.37305027837988,89.79348888605551,66.99009732670322,37100.0
118.74800860902172,89.99580643014046,66.28034791098094,37133.333333333336
114.88644345119323,87.74453268417273,64.95592226035598,37166.66666666666
114.1530695326494,87.48400097703957,63.98959859957662,37200.0
114.152418172936,87.45985995766165,63.987257775606594,37233.333333333336
114.11352150868977,87.18145774271746,64.14043304983771,37266.66666666666
113.22358820800473,86.69090295643372,63.09436548437434,37300.0
113.49051073341488,86.66460714436339,63.57346801062798,37333.333333333336
112.89425821711114,86.94029850746271,63.517209036783285,37366.66666666666
113.24278278278278,87.06284284284284,64.11319319319321,37400.0
113.31307469831457,87.1347761045178,64.20500648249725,37433.33333333333
113.42517861348827,87.60443982099396,64.50529952108032,37466.66666666667
117.36374680306903,89.4916240409207,66.47261295822676,37500.0
116.64354117897426,89.23034688231539,66.12377101510961,37533.33333333333
117.93542727906828,89.79915875800552,67.15854663820252,37566.66666666667
117.7353266182158,89.90739087934038,66.67786561264822,37600.0
117.73156530239278,89.91183220706361,66.69267712184963,37633.333333333336
117.62273261403696,89.27193675889328,66.58256596517465,37666.66666666666
116.52763619652409,89.06356534090908,65.79326119652407,37700.0
117.893002575334,89.02388237106821,65.9733441922916,37733.333333333336
113.38303675048357,87.27309477756286,64.11245647969052,37766.66666666666
113.57637571157495,86.92394054395952,64.22948292220114,37800.0
113.91177637582828,87.1562909177479,64.42909574257033,37833.333333333336
113.34024134835943,87.14285429340782,63.84246534357236,37866.66666666666
113.19098513011153,86.65316389203167,63.7838209148214,37900.0
112.80055754679412,86.87120669056154,63.79693349263242,37933.33333333333
113.54722382362878,87.14404707472715,64.54396358070096,37966.66666666667
112.43586185630586,86.96384520505705,63.886833179155104,38000.0
112.46137835337649,86.99703206907185,63.89529370952821,38033.33333333333
113.38104486308022,87.28215187415033,64.86743056904254,38066.66666666667
116.68127767235927,89.53103520978284,66.18098250052711,38100.0
117.23426249526295,89.49730514969052,66.88601625331593,38133.333333333336
118.66900758112664,90.86446320039516,67.7134205270279,38166.66666666666
120.6341990377762,91.61925338560228,68.78512562366357,38200.0
120.68106691749529,91.56875391919736,68.72596972140106,38233.333333333336
120.23610328109145,91.50873830195059,67.97007554402977,38266.66666666666
120.63896718908558,91.4121997970459,68.25103168339159,38300.0
120.43420349251605,91.78759800427656,68.2473494297933,38333.333333333336
119.62883714880331,90.91848768643774,67.9984174471037,38366.66666666666
117.4864864864865,89.5190918918919,66.12101621621622,38400.0
117.44428108108109,89.54205405405405,66.06021621621622,38433.33333333333
114.62086591723688,87.37143613554903,64.55596285434996,38466.66666666667
113.62049695844931,86.8951232085782,63.46920301061965,38500.0
113.44984063419416,86.65840552468126,63.86496812683885,38533.33333333333
112.9126103404792,86.60214375788145,63.063451029844465,38566.66666666667
112.75474525474527,86.13424075924074,63.26165501165501,38600.0
113.10867839384949,86.35730999038984,63.4853340575774,38633.333333333336
112.711885753753,86.68891055721453,63.345298311902,38666.66666666666
112.89535644211905,86.83864886700266,64.37875581887431,38700.0
116.53691960213699,89.04997176736308,65.59125656951744,38733.333333333336
117.04024734679905,89.08419633687093,66.43381975350907,38766.66666666666
118.3277219251337,90.54795721925134,67.44228877005347,38800.0
118.35454545454546,90.57516577540108,67.47073796791446,38833.333333333336
119.96422284809013,91.0797834888224,68.08031156486534,38866.66666666666
120.27691928693005,91.6066917495297,68.02535160799069,38900.0
120.47099834528406,91.48361831218979,68.41098731384446,38933.33333333333
118.63194533693184,90.69783232660757,67.09105513430151,38966.66666666667
117.7587009934836,89.58064309368658,66.47264181177225,39000.0
117.40061194796301,89.20902516261553,66.13860835330365,39033.33333333333
114.07869383242519,87.93435599778884,64.46943852167733,39066.66666666667
113.77987433928396,87.15813304078985,64.07084870848709,39100.0
112.71124858232807,86.48289514382925,62.84701515620167,39133.333333333336
112.25030254134731,86.16278741427996,63.260810810810824,39166.66666666666
111.9753995257243,86.05782039385504,62.57610062893082,39200.0
111.94943808640066,86.07879162800289,62.54741725951129,39233.333333333336
112.68640528579444,86.31446736894596,63.30189698518564,39266.66666666666
111.90651763097584,86.68471311969765,63.299927626553014,39300.0
112.3241109902944,86.51347106439529,63.578067737908256,39333.333333333336
111.8429707194105,86.9295326740353,63.71805313166569,39366.66666666666
113.19686916856728,86.45229110512129,63.56344598797429,39400.0
113.57144938394941,86.73782467532467,63.79732767232768,39433.33333333333
113.49911633859466,87.25717594003291,63.86257541593028,39466.66666666667
113.66208301502418,87.23002487708371,64.66831208007679,39500.0
113.6992119779354,87.63057525610719,64.4637706855792,39533.33333333333
114.34621749408986,87.57167060677698,64.88388494877857,39566.66666666667
113.87843160423807,87.55925794635472,64.12883532238371,39600.0
113.7614467408585,87.37388712241653,63.91365262321145,39633.333333333336
114.55564736015863,87.30116500041314,64.17227133768488,39666.66666666666
112.91742436766407,86.68703504711522,63.14919821458092,39700.0
112.75886787788902,86.62818769826558,63.5918098298521,39733.333333333336
112.76105915065723,87.03448348500167,63.3238751263903,39766.66666666666
111.08226556052642,85.19445771619684,62.15823307127655,39800.0
112.70566120218581,86.56970491803278,63.35851366120218,39833.333333333336
110.74068941624806,85.51396587562793,62.016087822622545,39866.66666666666
111.13244346530165,85.33907859780989,62.406164280006045,39900.0
111.72006667088634,86.4933856573201,62.85290208241028,39933.33333333333
112.58033543996108,87.09556797925781,64.19433641225085,39966.66666666667
112.08031272210377,87.22585485272053,63.99790728895207,40000.0
112.09144752428335,87.24701887388456,63.971570717839384,40033.33333333333
113.2180246812684,86.97276479241582,64.17834668192219,40066.66666666667
113.3362586970272,87.50067204301075,64.20611954459203,40100.0
114.83224988756695,87.81282963326383,65.04938877304878,40133.333333333336
117.577397319127,89.82005069599589,66.26871025949477,40166.66666666666
118.33501281327369,89.74916387959865,66.68653086044391,40200.0
118.40849038062586,89.71685628807897,66.62944118096652,40233.333333333336
118.52742874655223,90.29285057571907,66.58563548005779,40266.66666666666
118.84600823226431,89.96346107283573,66.54427593493429,40300.0
114.62307943772474,87.63627819548874,64.13117031709709,40333.333333333336
114.47984656852582,87.14034833091436,64.0833713456355,40366.66666666666
113.71114900425243,87.00221043324491,63.35712180539768,40400.0
113.7587870145122,87.07381931046055,63.395918966529656,40433.33333333333
112.90313332384457,86.64411053048941,63.88768020170391,40466.66666666667
112.30438391147057,86.45277718663546,63.056011917429245,40500.0
112.81225792721857,86.69955309640349,63.62766546073633,40533.33333333333
112.16236559139784,86.78716002530045,63.33965844402277,40566.66666666667
111.89684445567914,86.0744649477587,63.24344876980115,40600.0
111.89138860802156,86.09378159757331,63.2521065048871,40633.333333333336
111.2760467579016,86.35351498859562,63.10052134245683,40666.66666666666
112.57576610067316,86.7450015070833,63.9725108007636,40700.0
112.29548083443022,86.765904830282,63.558793027801045,40733.333333333336
114.22977099236641,87.69801939343924,64.88093666185269,40766.66666666666
117.5044352974841,89.97255178182299,66.13226651405428,40800.0
117.51825845788116,89.99029297175937,66.14675001650855,40833.333333333336
117.92138296486122,89.82400208487165,66.70327498588368,40866.66666666666
117.4749286146924,89.89151596435059,66.14482564679415,40900.0
117.984445591842,89.99412675874531,66.70853233509746,40933.33333333333
117.8182016396302,90.08265742194313,66.29897087039944,40966.66666666667
118.53283977900551,90.04857458563534,66.54293922651935,41000.0
118.5281546961326,90.04030939226519,66.54614364640885,41033.33333333333
113.59201112877585,87.45594197138315,63.87078696343402,41066.66666666667
113.7334139740856,86.90415368213877,63.809250451041486,41100.0
112.34447007002017,86.3851939579048,62.825967711774595,41133.333333333336
112.43541316046458,86.13798333644995,63.15130170998775,41166.66666666666
112.15604096989964,86.44441889632107,62.96072324414715,41200.0
112.00430406987783,86.22613245564068,62.730995632634965,41233.333333333336
112.274043715847,86.14171920975201,63.14461958806221,41266.66666666666
111.78045958009588,86.30257067283848,62.878574971069604,41300.0
112.17460509348808,86.50568181818181,63.92202611218568,41333.333333333336
112.6519039485582,87.11007736360895,63.76091630664121,41366.66666666666
113.64864536015574,87.27417261518494,64.41965444516548,41400.0
113.73448653471772,87.26295830629459,64.52455791693707,41433.33333333333
114.17546160831398,88.0597114317425,64.7817576430229,41466.66666666667
118.70457142857144,90.41934065934065,67.04892307692307,41500.0
117.71616970009896,90.04928789639,66.4276709263801,41533.33333333333
118.76470462557418,90.50603567994871,67.4408503365025,41566.66666666667
118.19396997929607,90.35800552104901,66.68068495514147,41600.0
118.18704710144928,90.3759704968944,66.65003881987577,41633.333333333336
118.92397790055249,90.20660773480664,66.85763535911602,41666.66666666666
114.74645588985213,88.15408465068842,64.67944926058134,41700.0
114.19914770410244,87.4969823016067,64.1900946089226,41733.333333333336
112.98230871295887,87.36088215190382,63.778597563427276,41766.66666666666
113.70091209572821,87.51307476674616,64.28032299903771,41800.0
113.42942420097002,87.40065497657837,64.2646229739253,41833.333333333336
113.0051462281913,87.70961466047446,63.840194970921715,41866.66666666666
113.3804667744476,87.58029681217094,64.45989304812835,41900.0
112.57487655459258,87.37158604298563,63.72329788759809,41933.33333333333
112.38191086395874,86.86206479690523,64.02171985815603,41966.66666666667
112.62018959257765,87.06964501815249,63.72176280758372,42000.0
112.61341266639776,87.10034288019364,63.69921339249698,42033.33333333333
113.87459592694357,87.36346371423954,64.48539275901082,42066.66666666667
113.47256664903723,87.58071340424281,64.37380266792032,42100.0
115.66890860325974,88.30757169383124,65.51770167113678,42133.333333333336
118.06759113901971,90.06039595325309,66.39939822082678,42166.66666666666
118.123767536811,89.67530295791167,66.52039265082743,42200.0
118.12864411591292,89.56338304981114,66.4161116327823,42233.333333333336
117.95456131170415,89.87061747776033,66.26718123146695,42266.66666666666
117.58115799383772,89.36778928449164,66.47062221841834,42300.0
118.05672527472528,89.9150989010989,66.11202197802197,42333.333333333336
113.65579518520693,87.22939805292745,64.36802413273001,42366.66666666666
113.3138843314192,87.06892945036915,63.425430680885974,42400.0
113.33524027459957,87.14261196469435,63.44992236024845,42433.33333333333
112.22323781291172,86.16703722002636,63.08502140974967,42466.66666666667
111.58306571146244,86.20740694993412,62.69388175230567,42500.0
112.29554363523829,86.58434082937899,63.496925933567155,42533.33333333333
111.68603432329668,86.5577432946254,62.9980063713904,42566.66666666667
111.8414079935078,86.57283424629743,63.537330087238786,42600.0
111.86772164739298,86.58096977074457,63.594927977277344,42633.333333333336
112.29991796554552,87.07266201804758,63.34038146021329,42666.66666666666
113.07664599578396,87.12985816909193,64.000081864882,42700.0
113.34532731646223,87.92185356738167,64.58022384350835,42733.333333333336
115.2752573389249,88.11634261024273,65.32505189138816,42766.66666666666
116.53560484303007,89.40222865102325,65.92692596164149,42800.0
116.56226293796206,89.42880102860815,65.95186970963249,42833.333333333336
117.12898781134076,89.50204557498672,66.6377106518283,42866.66666666666
116.3518597146739,89.21114979619566,65.79269276494566,42900.0
118.63589643507677,90.2181455460144,67.02732240437156,42933.33333333333
118.250021978022,90.10145054945058,66.28606593406593,42966.66666666667
115.28624174525814,87.63476591345444,64.53418992763255,43000.0
115.34545492697666,87.75016786973309,64.69082591908679,43033.33333333333
113.6765162331616,87.0679744242349,63.276325863389,43066.66666666667
113.40797285835457,86.32794741306192,63.21100508905853,43100.0
112.32506422772582,86.49047374370569,63.03845442400575,43133.333333333336
112.44757737805868,86.63101604278074,63.74665775401071,43166.66666666666
111.7811621755662,86.27432220201686,62.75692263183997,43200.0
111.78651429988427,86.28066622582243,62.789841296082,43233.333333333336
111.95049705822686,86.33104077906269,63.44083992696287,43266.66666666666
111.84098052822796,86.71049516267298,63.33879658733723,43300.0
112.69356029532403,86.706706316653,63.7501230516817,43333.333333333336
114.43175252768415,88.45991815117958,64.8580885893115,43366.66666666666
114.18172065194963,87.56814524448113,64.6951516401898,43400.0
114.18128739426449,87.59218073034866,64.7096554569837,43433.33333333333
117.79668508287293,90.12654143646408,66.23319337016574,43466.66666666667
118.35679590597624,90.18358053603954,67.14728077023159,43500.0
117.92380952380951,90.43307593307593,66.88700128700128,43533.33333333333
117.90402130950336,89.99759408833134,66.84705275820588,43566.66666666667
118.0837912087912,90.3226713762428,66.43160212803069,43600.0
118.0869745334031,90.33017181231466,66.39270451770453,43633.333333333336
118.33363490376136,89.89048469907041,66.0470223689865,43666.66666666666
113.34103255235331,87.07250673854449,63.43978851337342,43700.0
113.32683982683984,86.86929736929737,63.57613220113221,43733.333333333336
112.25939510939509,86.33202488202488,62.44257829257829,43766.66666666666
111.83932122784263,85.76115434500649,62.3981841763943,43800.0
111.86209342820904,85.85858933293204,62.55859148268375,43833.333333333336
111.46948427456628,85.87211127114819,62.19018853322442,43866.66666666666
112.02709913240759,86.13436127975126,62.89660315526332,43900.0
112.41279822838757,86.76837421133999,63.1895499937325,43933.33333333333
112.55784305802489,86.70365282042992,63.77743656053014,43966.66666666667
113.91381645419956,87.459960874519,64.04658511941871,44000.0
113.86153449276607,87.52539931637898,64.0639981082185,44033.33333333333
117.10840615438795,89.41920714930332,66.27087231185754,44066.66666666667
118.02952528837622,90.4526397515528,66.91080301685892,44100.0
119.65993679376123,90.84259827660688,67.66484778209764,44133.33333333334
119.56195355191255,90.97479508196722,67.2997495446266,44166.66666666666
119.6668032786885,90.58838797814207,67.46930783242259,44200.0
119.71573315118395,90.58413023679415,67.4723816029144,44233.33333333334
117.50795628415301,89.84550819672131,66.10216393442622,44266.66666666666
117.92587010139765,89.26016260162602,65.72133917968394,44300.0
112.54502487562188,86.1594527363184,62.54442371475953,44333.33333333334
112.3659753270409,86.13965474416294,63.05462410995197,44366.66666666666
110.69639794168094,85.80748663101603,62.488749873877495,44400.0
110.67753001715263,85.8061345979215,62.48703460801129,44433.33333333333
111.277729528536,85.86071133167906,62.90310173697272,44466.66666666667
110.59661105738232,86.05911508704064,62.65296582849774,44500.0
112.9740371600837,87.43728723186086,64.33817316763053,44533.33333333333
112.92744009470549,87.70010613544515,64.00502102298239,44566.66666666667
114.72823984526111,88.8010154738878,65.42039410058027,44600.0
114.755500483559,88.81612669245649,65.46137572533848,44633.33333333334
113.77285521496049,88.58199344515135,64.98920377867746,44666.66666666666
115.51864015082407,89.13274138944637,65.99452654625068,44700.0
116.9191402481434,89.41883736061564,65.40470260931995,44733.33333333334
116.8278,88.8462222222222,65.60282222222223,44766.66666666666
116.64281564245807,88.87756424581006,65.12641340782123,44800.0
116.63302793296093,88.86589944134079,65.127374301676,44833.33333333334
117.71859318996417,89.19189068100357,65.86348566308244,44866.66666666666
115.90258808088265,89.17944300890034,65.55010048808498,44900.0
115.0091157162066,88.21411057502175,65.14523847188167,44933.33333333333
113.80094393129153,87.70535569599741,63.8750202560363,44966.66666666667
111.77319358617069,86.0343107556848,63.099337614604785,45000.0
111.81804596308413,86.03037279373156,63.150975402883795,45033.33333333333
110.63565492679064,85.89370795409576,62.68753462603878,45066.66666666667
111.3491462241462,86.04643658810326,63.29244829244829,45100.0
111.34019353410987,86.30536946506528,63.12108958496791,45133.33333333334
112.39817772317772,86.35030712530713,63.568243243243245,45166.66666666666
112.62757167644386,86.713996529786,63.25691977195737,45200.0
112.626414938445,86.7431628521854,63.23072791869785,45233.33333333334
112.86020148611028,86.8719181237357,64.25209797913037,45266.66666666666
117.11655465949819,89.37676971326168,65.55145609318997,45300.0
116.79051565377532,88.87255546785933,65.67436200999737,45333.33333333334
116.19380548175987,88.88133652994665,65.35393852998985,45366.66666666666
116.323818707811,88.54019072109719,65.57293474766956,45400.0
116.29708274170643,88.49173873757583,65.58558151542533,45433.33333333333
116.30058964556473,88.9665867513337,65.33849543186678,45466.66666666667
116.66051339964385,88.69951787343092,65.5742518351214,45500.0
117.99142857142857,89.9554648526077,65.77530612244898,45533.33333333333
113.23544340066721,86.7785964265979,63.42399869016189,45566.66666666667
112.29319907492685,86.58433106158284,62.786455455271074,45600.0
112.2896779993462,86.66972458319712,62.87101585485453,45633.33333333334
112.483129222973,86.38213682432432,63.25063344594595,45666.66666666666
112.39065733918372,87.18072688136435,63.521504263597976,45700.0
112.67089576951734,87.12244391091978,63.92656676877226,45733.33333333334
112.47010965688007,87.3525458290851,63.60071994839678,45766.66666666666
113.79889513860986,88.31894335074327,65.0935516271595,45800.0
113.73878185710251,88.12163253766306,64.92525950159538,45833.33333333334
113.71362906463268,88.22655560016058,64.64070654355679,45866.66666666666
114.12567296102851,87.90662916834069,65.24290879871434,45900.0
114.87561840549887,87.89155466047896,64.6021627774616,45933.33333333333
115.42375748113452,87.9585176511406,65.26728250498742,45966.66666666667
115.8727587947418,88.46384444883358,65.35396229727654,46000.0
115.92358469945357,88.52174863387978,65.40253551912569,46033.33333333333
117.1796073181615,88.79602855867915,65.94239178937974,46066.66666666667
117.75067254174395,89.1329081632653,65.55804730983301,46100.0
117.81031468531471,88.7485967979389,65.79435038645565,46133.33333333334
118.00680820567949,89.9415031801487,66.28563110275016,46166.66666666666
116.90723549937456,88.74779994294117,65.64717887945224,46200.0
117.25689670368412,89.01956636700159,65.87096774193549,46233.33333333334
113.64089354709776,86.3760714127104,62.68532664209264,46266.66666666666
112.48138993893572,85.74924188925353,62.744527063515136,46300.0
112.21141626508593,85.79745404921319,62.082945967845106,46333.33333333334
112.48125188342159,85.70089112746997,62.56515562443498,46366.66666666666
112.33236471651816,85.99666365319212,62.28434284730295,46400.0
112.27945116681072,85.91168971477958,62.22502160760589,46433.33333333333
112.28975363342535,85.77936171579016,62.71420621160557,46466.66666666667
111.91642567958358,86.26825993555317,62.69920680822936,46500.0
113.08260120585699,86.44112833763997,63.34020241171404,46533.33333333333
116.3088555338673,89.06569293935516,65.05804222476498,46566.66666666667
116.94061538461538,89.2455824175824,66.20663736263737,46600.0
116.9516043956044,89.29815384615385,66.27098901098901,46633.33333333334
118.74348816029145,90.74685792349727,66.98884335154827,46666.66666666666
118.56557874585607,89.79343512163234,66.74114021571647,46700.0
117.94097655708143,89.71944791233179,66.28573079946365,46733.33333333334
118.65938273334268,89.58876126441608,66.51886351963392,46766.66666666666
118.33545918367346,89.65085807050095,65.87212430426716,46800.0
118.32386363636364,89.63068181818181,65.86776437847867,46833.33333333334
116.71548070735982,88.53750915263262,65.47569282655483,46866.66666666666
117.3898071935957,89.25975871011389,65.3397000789266,46900.0
112.40439205091995,85.80035201899265,62.83727308078017,46933.33333333333
112.24100244959487,86.0831396687813,62.602684086008,46966.66666666667
111.45256916996048,85.4048089591568,62.56888175230567,47000.0
111.47523468379448,85.39354825428195,62.58833580368907,47033.33333333333
110.87293202293202,85.4904995904996,62.14854627354627,47066.66666666667
113.43557245458383,87.44434385499024,64.56778723318646,47100.0
113.35461298530736,87.57475580727241,64.03972748912419,47133.33333333334
113.40047298380631,87.4579725829726,64.76619368286036,47166.66666666666
113.90679908326969,87.81169863522804,64.58123593417712,47200.0
113.87518840460018,87.86839551545435,64.58379617203147,47233.33333333334
115.66021388926492,87.62923604530481,64.719146247913,47266.66666666666
114.559766313933,87.39944885361551,64.05557760141095,47300.0
115.53951360999555,87.72286925479695,64.69897367246764,47333.33333333334
116.94888692250372,88.69832805514156,64.54827216840536,47366.66666666666
114.77009414204672,87.9680161037799,64.87088509790365,47400.0
114.7667595209532,87.98216791037191,64.8821902767329,47433.33333333333
113.74706563068277,87.52144982641758,63.62411142337576,47466.66666666667
112.5877927815287,86.4645536384096,63.28323747603567,47500.0
111.83249024425496,86.55937067701772,62.84494043317573,47533.33333333333
112.25384615384615,86.52422871246401,63.50771287535993,47566.66666666667
111.77257241963123,86.70588235294117,63.08368261309439,47600.0
112.03593499656671,86.88189517051956,63.264737093988636,47633.33333333334
112.41947093389723,86.82493239259061,63.762713242919006,47666.66666666666
113.45726683730602,88.04805231163012,64.40935450327947,47700.0
113.6346641318124,88.01047607731304,65.20910567173637,47733.33333333334
115.79683046402918,88.53578839356972,64.60216622962034,47766.66666666666
115.79611262730481,88.07734806629836,64.97250881980962,47800.0
116.21535822491535,88.36025218321156,65.27276777757976,47833.33333333334
115.53655555555555,88.09813333333334,64.4050888888889,47866.66666666666
116.50902777777776,88.3037634408602,65.01339605734768,47900.0
114.80826130319149,88.27734375,64.6699842087766,47933.33333333333
114.18856665473207,87.73926880693799,64.67277320284839,47966.66666666667
112.77149991879162,86.87893860646419,63.373010394672725,48000.0
112.71004547669321,86.91290401169401,63.278686860484,48033.33333333333
112.61605342741936,86.22416834677419,63.28790742607528,48066.66666666667
111.81281956127329,86.37996866237837,63.00061850569025,48100.0
112.25639431248186,86.2572648509721,63.289599137752354,48133.33333333334
112.05190755685986,86.747798972854,63.30830683948805,48166.66666666666
113.71621131528046,87.66027965828499,64.68921260477111,48200.0
113.75394906511929,87.67730496453899,64.72122823984526,48233.33333333334
112.12852735499793,86.50160427807484,63.321143562320025,48266.66666666666
116.34654892773472,88.30113533970085,64.93908812398631,48300.0
115.07772662120487,87.99743734526346,64.5364201016375,48333.33333333334
115.20034989956586,87.8825244605715,65.06972072830946,48366.66666666666
115.46747540983608,88.2608306010929,64.98085245901639,48400.0
115.44577049180329,88.29744262295083,64.95053551912568,48433.33333333333
116.15307103825137,88.43608743169399,65.40915846994535,48466.66666666667
115.80130029333216,88.53732323453438,64.80239481633903,48500.0
116.47900704872816,88.62593581717087,65.38577557900268,48533.33333333333
114.33987441130293,87.45543345543345,63.71180010465724,48566.66666666667
112.94668677187474,86.38434685615137,63.18960175163184,48600.0
113.21853146853148,86.56064768564768,63.33212620712621,48633.33333333334
112.01237807902132,86.35755910067779,62.69032071416761,48666.66666666666
112.02547374961168,86.14136895516205,63.088329709019355,48700.0
111.76627273661494,86.4120645360189,62.747179118281785,48733.33333333334
112.87495860241762,86.67523596621956,63.47180824639841,48766.66666666666
112.83147239903995,87.01623708650736,63.50700198267766,48800.0
112.75958572976576,87.05630574310244,63.56897557722764,48833.33333333334
116.24031682284695,88.42505577867024,65.13817492190987,48866.66666666666
114.98675666988106,88.10577520625736,64.62492231865423,48900.0
115.9684306253248,88.43153473064268,65.49027801836134,48933.33333333333
116.70250864673176,89.0325292237643,65.59839761831793,48966.66666666667
118.3448433360738,89.33712432629946,66.33077555494657,49000.0
118.39864803142412,89.340412898511,66.36388965013245,49033.33333333333
118.66869776345892,89.77982443853013,66.11707988980716,49066.66666666667
119.2897698090302,89.87701358733715,66.60276882850071,49100.0
117.29269713261648,89.19072580645161,65.52997311827957,49133.33333333334
115.79771482369051,87.98318212940774,65.02255220814789,49166.66666666666
114.92636614304813,88.15119485294117,64.47190424465239,49200.0
114.57504317609605,87.90844586861981,64.19598826442497,49233.33333333334
112.90770728816072,86.08956203297983,62.730721195571654,49266.66666666666
112.4594994169582,86.52309262035652,62.8086165250708,49300.0
114.24477697371113,87.85308066560367,64.39633672676726,49333.33333333334
112.32205204216076,86.72262022397892,62.93614130434783,49366.66666666666
114.25083686227062,88.3506957047792,65.20276265376084,49400.0
114.21397149749642,88.16473068580349,65.08090575523525,49433.33333333333
115.73920262053801,88.63040990778757,64.65713131857035,49466.66666666667
116.01160892030329,88.664750486501,65.28409421343414,49500.0
117.17585920177383,89.27508314855876,65.4446138211382,49533.33333333333
118.5205216360403,89.5981268524007,66.35122703023117,49566.66666666667
118.2709194214876,89.81463655146506,66.06160781367393,49600.0
118.28608658903082,89.85567712246431,66.01420454545455,49633.33333333334
118.7993050338092,89.83179939894815,66.42874248685199,49666.66666666666
118.7592653715579,90.1801442851754,66.19820350811014,49700.0
118.32450422013314,89.58491731283883,66.14012214369039,49733.33333333334
116.42022956800284,89.00985451795168,65.20391956221916,49766.66666666666
116.73635164835163,88.79942857142856,65.39164835164836,49800.0
116.71648351648348,88.81907692307692,65.40632967032967,49833.33333333334
114.10856926188069,87.60347152005394,63.72988287832828,49866.66666666666
113.32668453531132,86.86193355357477,63.265079266138926,49900.0
112.12701741009023,86.27392298894398,62.37603253272335,49933.33333333333
112.4754308532997,86.29131988230348,62.9452711223203,49966.66666666667
112.47288715192968,87.09656407751179,63.09770395701027,50000.0
112.46665852467028,87.10311838462792,63.0866104868914,50033.33333333333
112.75395991595279,86.80279214481978,63.59554307418782,50066.66666666667
114.27596673596672,88.06866943866943,64.37378378378378,50100.0
117.50987307600201,89.58234820281712,66.24888424444299,50133.33333333334
117.20587474120084,89.8172446514838,66.02527605244997,50166.66666666666
118.67243883119171,90.45161503256467,66.96736930117937,50200.0
118.74548935046649,90.45896409082908,66.99280496391478,50233.33333333334
118.55571756804524,90.69339872746555,66.64824142806647,50266.66666666666
119.0464266854427,90.71589508889281,67.08339200844921,50300.0
118.63399039844248,90.71511692219198,66.60638038981439,50333.33333333334
118.41965688842323,90.29908765496769,66.80068098480879,50366.66666666666
117.37688376927076,89.97778451411745,65.96583232288239,50400.0
117.36449852762863,89.98770136843929,65.97267451931405,50433.33333333333
118.30419177596598,90.08753544842254,66.42571339950372,50466.66666666667
113.84500362431395,87.66964895930413,63.826799213006105,50500.0
113.24902251306746,86.81933983619379,63.41299337366753,50533.33333333333
114.3937788204838,88.74128306771297,64.70777040692501,50566.66666666667
114.03549211057556,87.92623491121824,64.37669426935278,50600.0
114.03085733119104,87.93692580233181,64.37102953899395,50633.33333333334
113.93362813656931,88.42482517482517,64.30113122171946,50666.66666666666
114.17239705525444,88.43503761831569,64.92011164145296,50700.0
114.20485074626863,89.20602906520031,65.28713668499607,50733.33333333334
116.21855744835085,88.93919898513954,65.04301830373322,50766.66666666666
114.46186551543694,88.20767922553637,64.40380254665969,50800.0
114.48347287633,88.21079713936855,64.43495988138845,50833.33333333334
115.99194556001785,88.57467648371262,65.28536367692995,50866.66666666666
116.87971185212034,89.34505255527365,65.54988220369701,50900.0
118.12806303778522,89.44591750841751,66.26526842499065,50933.33333333333
118.20400766928543,89.70975963337074,66.04561821922933,50966.66666666667
118.6140152851264,89.5362257495591,66.26692533803646,51000.0
118.61796590241036,89.5423868312757,66.26368018812464,51033.33333333333
117.89737654320987,89.4556677890011,65.55882903105126,51066.66666666667
117.30558391759129,88.83661198466181,65.4314432872734,51100.0
115.8996923076923,88.69793406593406,64.92657142857142,51133.33333333334
117.50732667826723,89.30707940287573,65.38874896968586,51166.66666666666
114.63504040903842,88.6821499257793,64.82659162130956,51200.0
114.63840095662212,88.67755236681509,64.81543790202869,51233.33333333334
114.65536166619759,88.53723211772748,65.01324836154558,51266.66666666666
114.37784299339692,88.84688595418602,64.8255482187984,51300.0
114.51858645145512,88.66432298035379,65.07481454308306,51333.33333333334
113.6858870641534,88.42563303939812,64.51429900493488,51366.66666666666
113.46698940154594,87.87598613435335,64.57122081440752,51400.0
113.42070427838215,87.92955234528269,64.68366922299506,51433.33333333333
113.226400533934,87.62935385642182,63.633379218287246,51466.66666666667
115.5613170915707,88.53444718098915,64.91244536155672,51500.0
114.59545493971723,88.40966258999045,64.59200711249892,51533.33333333333
115.84505487225914,88.59021352706074,65.20776381743104,51566.66666666667
116.89536539433192,89.32189610031695,65.28306003399017,51600.0
116.92283312663635,89.35184419640807,65.26239033576776,51633.33333333334
118.02188204357628,89.64134109691963,65.97635706235913,51666.66666666666
117.08232838589979,89.39216141001855,65.22474489795917,51700.0
116.37713552569383,88.64262723118824,65.06529812951585,51733.33333333334
114.7162588792423,88.1275103043059,64.15802858896781,51766.66666666666
115.69629663002344,88.48082987925753,64.48817354478285,51800.0
115.70150027031895,88.46134438637594,64.48639394485492,51833.33333333334
113.56082770692673,87.9997290989414,63.93971409519046,51866.66666666666
113.365638414695,87.98364779874214,64.62042527702904,51900.0
113.15076154212281,88.47469458987783,64.54712041884817,51933.33333333333
113.84156787225932,88.60418045776413,65.16007702954805,51966.66666666667
113.17558620408657,88.22604762971865,64.59380283985577,52000.0
113.18503880864587,88.22979607635422,64.5855725548516,52033.33333333333
114.76539549925889,87.92227013430357,64.4855589992364,52066.66666666667
113.95314591700134,87.62931726907631,63.78250780901382,52100.0
114.91430877435721,87.53616972212616,64.39428110227142,52133.33333333334
115.7395755071375,88.26880634861006,64.62976615326822,52166.66666666666
116.2050238095238,87.93683333333334,64.81804761904762,52200.0
116.23997619047621,87.95297619047619,64.8845,52233.33333333334
116.05345206264325,88.3385933919022,64.35805003819709,52266.66666666666
116.18918210207632,87.98185892393144,64.58487687429975,52300.0
116.09906320923271,88.29605485537687,64.2811096624656,52333.33333333334
116.08682849755816,88.04134348367327,64.52049219572919,52366.66666666666
115.08691040237608,87.84605049147869,63.993824104848784,52400.0
115.0949249228013,87.84857270820073,63.9777479197605,52433.33333333333
112.88806907378336,86.3282126037228,63.27409733124018,52466.66666666667
114.13848631239937,87.82776435856145,63.89595634281624,52500.0
110.74983998513409,85.3165403753639,62.49193731546673,52533.33333333333
109.86918010447422,85.23806082629613,61.85877397642104,52566.66666666667
110.32517085458264,85.22587904940845,62.42089071500836,52600.0
110.3302196205422,85.13646365259268,62.352389255615066,52633.33333333334
110.49040096707441,85.88643022517263,62.389185977421256,52666.66666666666
114.44963474740362,88.03021035029045,64.60728744939271,52700.0
111.84937888198758,86.38060731538992,63.01315562456868,52733.33333333334
114.82791916683908,87.7760305308412,64.49389613076764,52766.66666666666
115.7587102256633,88.48007742422811,64.70335662354829,52800.0
115.83319090348007,88.48048711009828,64.58619379955373,52833.33333333334
116.36037327817215,88.31662827323584,65.248319307978,52866.66666666666
117.55667249417247,89.19954351204352,65.32825854700855,52900.0
118.73504522198783,89.49542930578792,66.26822821949031,52933.33333333333
118.38031603589545,89.52770191182209,65.67696547015217,52966.66666666667
117.66700181940055,88.59345973379297,65.57090874269845,53000.0
117.71571866321938,88.56935267643397,65.54541319544192,53033.33333333333
115.84475655430711,87.86114232209738,64.19812734082396,53066.66666666667
115.46644624330179,87.46443963060085,64.37952342948353,53100.0
114.28807885867307,86.92619696200194,63.38923773027379,53133.33333333334
114.81903283052351,87.69385536823425,64.59117125110915,53166.66666666666
114.21879811611272,87.33065392627479,63.525405307490274,53200.0
114.22731183769586,87.32367992029707,63.52486187845304,53233.33333333334
114.60227272727272,87.19837006427916,63.83950872359964,53266.66666666666
110.28253777472528,84.71213942307693,61.4563229739011,53300.0
110.8335797707061,84.86535947712417,62.26330226079503,53333.33333333334
110.63855754714977,85.28808658119114,61.95500839871574,53366.66666666666
114.7466907204871,87.57546510316834,64.28580448754086,53400.0
114.80130792648552,87.5778103506596,64.38457548765362,53433.33333333333
114.63541297412264,88.03154909606522,64.23794753633463,53466.66666666667
114.76504892114299,87.78079440160694,64.63902028121558,53500.0
113.19788464432358,86.76034568007395,63.219425156394436,53533.33333333333
114.72395555555555,87.24086666666668,64.11922222222222,53566.66666666667
114.57541610436348,87.47505623031941,63.954003598740435,53600.0
114.9362691960253,87.78766937669377,64.16230803974706,53633.33333333334
116.39015334947538,88.08742073100426,64.91910526922634,53666.66666666666
116.68736338797814,88.76655282331512,65.31281876138435,53700.0
119.0219473264166,89.75947138631989,66.67970987277593,53733.33333333334
118.49207410236822,89.43974407944998,65.77976986249045,53766.66666666666
118.9247298919568,89.21851140456181,66.11133253301321,53800.0
118.98633853541416,89.2259543817527,66.16388955582232,53833.33333333334
118.52653100038036,89.53183244579687,65.7872765310004,53866.66666666666
119.0209371884347,89.46828561933249,66.22515785975408,53900.0
116.84176140987188,88.49017693148264,64.67701285717608,53933.33333333333
115.7699997738222,87.58351616040531,64.45185805079954,53966.66666666667
115.06692794041227,88.00253334488134,64.37616923609909,54000.0
115.0626407413823,88.02574484670015,64.34026935735321,54033.33333333333
115.75859048645736,87.90944616628487,64.4311862731887,54066.66666666667
115.44032699995508,88.01812424201592,64.16619503211606,54100.0
115.77990960652252,88.06451612903227,64.70170152428217,54133.33333333334
115.63941009941405,88.33460618430004,64.70410604165295,54166.66666666666
115.83339943592456,88.07938921205711,65.06317204301075,54200.0
115.86702362065928,88.07238233738762,65.12319319583995,54233.33333333334
116.5157658667863,88.83166629289076,65.28122897510653,54266.66666666666
116.72828011127204,88.15178058256892,65.37165781548153,54300.0
117.68099851495651,89.04162836197345,65.73290432076939,54333.33333333334
118.59340477764135,89.05358323104522,66.37902464356529,54366.66666666666
118.26191042221376,88.8929012932674,65.74598231266641,54400.0
118.27023107645492,88.93640642829973,65.74947698744771,54433.33333333333
118.95086898395722,89.02616501145913,66.27948338426279,54466.66666666667
118.36118005815192,89.19965487081295,65.7218636976101,54500.0
119.15699390592268,89.34771948200344,66.43351266425442,54533.33333333333
116.76945587562872,88.4591678097851,65.08996342021034,54566.66666666667
117.61411839189616,89.19820919820921,65.84524940080496,54600.0
117.57592407592408,89.13545545363726,65.78017437108346,54633.33333333334
115.1654443862406,87.97865374541644,64.36559280600663,54666.66666666666
115.76909675690165,87.88510676315556,64.66161886893596,54700.0
115.6072386965836,88.1578306460706,64.25495546284813,54733.33333333334
116.15334310519786,88.29229901905514,64.87852069004397,54766.66666666666
115.5387062330382,88.44812474974418,64.484917916092,54800.0
115.5414364640884,88.3629632943387,64.3943901402465,54833.33333333334
114.34964139344262,87.31156079234972,64.25508025956286,54866.66666666666
115.67412299549906,88.18775020921447,64.41413159025626,54900.0
116.4866012626607,88.2427896625335,65.27610482808738,54933.33333333333
116.35962273539455,88.60113541266143,64.98909822902765,54966.66666666667
118.14046932508148,88.96781302013737,65.99041189019387,55000.0
118.18222097193896,88.98335560400405,66.02834235881566,55033.33333333333
118.81814528520435,89.6840176819611,66.08436753894523,55066.66666666667
119.95703899537342,89.9152582381267,66.84852705126994,55100.0
120.06467815654163,90.15442296705388,66.61271662540469,55133.33333333334
120.23895951035782,89.9748352165725,66.97328154425611,55166.66666666666
118.00819597278664,88.9098899593626,65.6684626272773,55200.0
118.01059312360168,88.89621478471304,65.6519108716497,55233.33333333334
118.74914112345516,89.60895462454826,66.82208985856423,55266.66666666666
118.43321056413944,89.75184153790873,66.11709486166008,55300.0
116.26825945945946,87.96966486486488,65.05939459459461,55333.33333333334
116.43882036331017,88.14227405247813,64.49347387306571,55366.66666666666
116.76903431763769,87.78643256185156,64.53033861589329,55400.0
116.77177060768442,87.78009348990993,64.52700946300308,55433.33333333333
116.69715152769156,88.21973929236498,64.31530910177713,55466.66666666667
116.71662131519274,88.04709750566894,64.69952380952381,55500.0
116.07736554501007,88.46631711687796,64.75870002876043,55533.33333333333
116.39091662305948,88.40552503052506,65.21302110587824,55566.66666666667
117.78434065934064,89.6116690686363,65.88445775535939,55600.0
117.75815193048464,89.72308071306995,66.00082863029652,55633.33333333334
117.485333394732,88.6471725916375,65.59651869589243,55666.66666666666
117.4505149716936,89.0923311279358,65.75808835231794,55700.0
117.7724043715847,88.77679872495445,66.01031420765027,55733.33333333334
117.96902149062643,89.29935985368084,65.84211248285322,55766.66666666666
118.22033512948185,89.30650478594002,66.22947502444127,55800.0
118.22961144078394,89.30873291953709,66.24336675533729,55833.33333333334
117.81314680831578,89.36429618096895,65.67464969319535,55866.66666666666
118.87889661359048,90.07293115048216,66.70078492935636,55900.0
116.40754373809112,88.87164385934523,65.05514896934004,55933.33333333333
116.80753225135248,88.35864891108334,64.66923290331529,55966.66666666667
112.36107859531772,86.25054347826088,62.65127508361204,56000.0
112.40173663168413,86.30076628352491,62.715329835082464,56033.33333333333
112.61192383131744,86.30422523700554,63.170071918927746,56066.66666666667
112.0199959357854,86.43639504165822,62.731050599471644,56100.0
112.88501228501232,86.62989352989355,63.46408681408682,56133.33333333334
113.64197060194012,87.21633413817936,63.40081331808362,56166.66666666666
116.82244391258641,88.71096248909569,65.30570156798711,56200.0
116.8433050352603,88.68869873781611,65.28574316129902,56233.33333333334
116.51125169651066,88.90517052668447,65.0204456897684,56266.66666666666
118.10089133745407,89.58617755083759,66.33301979754546,56300.0
118.76542514862189,90.27943163393984,66.58180958385877,56333.33333333334
119.5388134057971,90.31897644927535,67.35394021739131,56366.66666666666
119.144384057971,90.54125905797102,66.89021739130435,56400.0
119.16677989130434,90.54504076086955,66.90672554347826,56433.33333333332
119.85887142372498,90.64950808549135,67.54863734026914,56466.66666666668
119.53540903540905,90.7267444489667,66.87747026635915,56500.0
117.58363404330223,88.9860719943672,65.78227864812533,56533.33333333332
116.92848360655735,88.70252732240436,64.6761612021858,56566.66666666668
112.24923510466988,85.84255233494366,62.652576489533004,56600.0
112.23125125125124,85.92122122122122,62.793693693693676,56633.33333333334
112.42762934690417,86.05960559796438,62.15602205258693,56666.66666666666
112.38701446585972,85.96714605035635,62.65300915187044,56700.0
111.800435292148,86.0095429432446,62.189770634522006,56733.33333333334
112.05544901536241,86.04317970924838,62.86454273636458,56766.66666666666
111.7058058058058,86.35689689689691,62.75981981981983,56800.0
111.73187187187187,86.36094094094094,62.77315315315315,56833.33333333334
113.62291770781276,87.02969348659005,63.856321839080465,56866.66666666666
116.34395750332008,89.19591579039036,65.28489321402913,56900.0
119.0772170216615,90.55046805046804,67.07059195948085,56933.33333333332
119.49154165336736,91.09256303862114,67.23099721854909,56966.66666666668
119.83561736009868,91.1795671189862,68.02666816193786,57000.0
119.93511261261257,91.1901126126126,68.0702927927928,57033.33333333332
119.81241039426523,91.65873655913978,67.78734318996416,57066.66666666668
119.9446846846847,91.24666666666668,67.86441441441441,57100.0
119.92666211293259,91.53233151183971,67.44417122040072,57133.33333333334
119.13518299881935,90.54645354645358,66.90434565434565,57166.66666666666
116.66439165830263,89.32760120441618,64.98329430132709,57200.0
116.65236980037916,89.31687297869968,64.93389093342255,57233.33333333334
112.10198803943753,86.04182156133827,62.730422660417005,57266.66666666666
111.78765432098768,85.87151979565773,61.86240953597276,57300.0
111.36650768415474,85.68627450980392,62.40201377848437,57333.33333333334
111.24491557539265,86.12550002105353,62.416712282622434,57366.66666666666
111.3652148445672,85.7741517091335,62.658968244006516,57400.0
111.6614864864865,85.89404560810813,62.733614864864855,57433.33333333332
111.6751138595245,86.13180545690052,62.3296912213262,57466.66666666668
112.17454618797905,86.36131504638969,63.377531262605885,57500.0
113.53272284836063,87.24686219262293,63.57327954234973,57533.33333333332
116.55309148682643,88.85173661679686,65.44902687673772,57566.66666666668
116.57895652173914,89.24695652173914,65.54430434782608,57600.0
116.92878033874628,89.53607909900471,65.7427754496246,57633.33333333334
