B,G,R,Time[ms]
112.07865078302773,99.03870967741936,74.95826529246419,0.0
112.1994361102245,99.2388020002128,75.1785296308118,33.333333333333336
112.1743586991521,99.12402060749169,75.12251797788987,66.66666666666667
112.94198312236288,99.47400735691878,75.44814995131449,100.0
112.09125953687591,99.00725471824387,75.04095837237317,133.33333333333334
112.17396860167943,99.38705471235592,75.91787930944557,166.66666666666666
112.85517668605905,99.48257379875028,75.47004955828486,200.0
112.84653092006032,99.46846046110753,75.46310062486533,233.33333333333331
112.465285302746,99.2796997647805,75.50075323096439,266.6666666666667
112.44840037169786,99.42665604672771,75.56991902296562,300.0
112.52820581178352,99.23023193814986,75.51930151959479,333.3333333333333
112.20129801042664,99.19533992977976,75.25930950101075,366.6666666666666
112.2865543547362,99.33526700572158,75.44114219114219,400.0
112.17601392049255,99.08014991299692,75.11219381608888,433.33333333333337
112.214529458811,99.2718741668888,75.30914422820581,466.66666666666674
112.43878965609173,99.4024526792855,75.47088776326314,500.0
112.35980653857337,99.49422522927291,75.47546052805454,533.3333333333334
112.7564976958525,99.97582620144831,76.09213956550363,566.6666666666666
112.51063321385902,99.59713261648744,75.61061993893534,600.0
112.50999601752292,99.58205230319923,75.59033585556881,633.3333333333333
112.52332404088676,99.52584627638392,75.6150272135935,666.6666666666666
112.52940395592724,99.55706889685385,75.61805389619009,700.0
112.48742864728528,99.52412053630691,75.62503650604009,733.3333333333333
112.45556883047922,99.54530731448294,75.63724943581576,766.6666666666667
112.63050015827793,99.69083043157116,75.96201329534664,800.0
112.7315573770492,99.83903425809164,76.17284047919293,833.3333333333335
112.72974036191977,100.04295830055077,76.33057959611854,866.6666666666667
112.74829931972788,100.04403453689169,76.26732077446363,900.0
112.76706005769735,100.08287437713085,76.30941515866772,933.3333333333336
112.82499478840944,100.26133520950594,76.50891181988744,966.6666666666664
112.71924634070379,100.27125506072872,76.56270113152705,1000.0
112.6377693613687,100.1327935222672,76.3999477602194,1033.3333333333335
112.78437990580849,100.13550497121923,76.39353741496598,1066.6666666666667
112.7580193086266,100.29949133187999,76.5345686701962,1100.0
112.6414442700157,99.97961800104656,76.229094714809,1133.3333333333333
112.77048665620094,100.1914442700157,76.30081109366823,1166.6666666666667
112.62843976300196,99.88882159315338,76.13245556287029,1200.0
112.59905200789991,99.88818959841998,76.09011191573403,1233.3333333333335
112.58467318200924,99.92554644808745,75.9570722992854,1266.6666666666665
112.69243851386707,100.00047095761379,76.25970695970696,1300.0
112.34325213956552,99.70201448321264,75.88460829493087,1333.3333333333333
112.34175039661557,99.59389212057111,75.89793759915389,1366.6666666666667
112.21107879428871,99.50245901639343,75.60854045478581,1400.0
112.24627181385507,99.4983606557377,75.6016393442623,1433.333333333333
112.30711263881544,99.55153358011634,75.7953728186145,1466.6666666666665
112.28593947036569,99.66868957545185,75.85674127784782,1500.0
112.2884089953762,99.67838377469525,75.93826187473728,1533.3333333333335
112.22706494325348,99.70686212694409,75.92320828079025,1566.666666666667
112.23518284993696,99.61131252627155,75.84195039932744,1600.0
112.2392023959647,99.59893862967634,75.86367696511141,1633.333333333333
112.0923024163765,99.4824311490978,75.55732299250819,1666.666666666667
112.02235497145892,99.29008363201912,75.3853444842692,1700.0
112.12451084082495,99.5290851401375,75.61620835536753,1733.3333333333335
112.30473294553148,99.4914066631412,75.84473823373877,1766.6666666666665
112.2034275248561,99.67401883830456,75.98233908948194,1800.0
112.13448402690209,99.50528058007566,75.77776902059689,1833.333333333333
112.05514403292179,99.29735829018983,75.5537236160892,1866.666666666667
112.00220363732909,99.2806849860613,75.48081773529802,1900.0
112.04077207826546,99.37088841882601,75.62049180327868,1933.333333333333
112.04064207650272,99.46574190836486,75.68437368642287,1966.6666666666665
112.03438944934848,99.4171658259773,75.73344892812106,2000.0
112.03754203446829,99.40424022698612,75.7401744430433,2033.333333333333
111.96931483816729,99.37626103404793,75.6408942833123,2066.666666666667
111.80971896955505,99.1329572067277,75.34950500319353,2100.0
111.75194272940176,99.10504045135193,75.25218224398552,2133.333333333333
111.93283621140765,99.48500784929355,75.74599686028256,2166.6666666666665
111.62063416693049,99.13034188034187,75.21668249446027,2200.0
111.64574759945131,99.12063416693049,75.22230136119025,2233.333333333333
111.75363902959214,98.94534790722471,75.09234870701147,2266.6666666666665
111.65142628632364,98.9517728605705,75.04174886696879,2300.0
111.6035482498138,98.84567507181616,74.96568783913182,2333.333333333333
111.55813144157408,98.78696292330343,74.84799892919288,2366.6666666666665
111.88590798775984,99.18819246597023,75.40352959797404,2400.0
111.87620027434843,99.19937744011818,75.4124986810172,2433.333333333333
111.77671578388424,99.15207752555422,75.28695075003318,2466.666666666667
111.86852379444971,99.2318507966656,75.43299567373641,2500.0
111.86432942914423,99.26105307586788,75.42677007491822,2533.333333333333
111.89725123984384,99.29286694101508,75.40735464809539,2566.666666666667
111.97139029003785,99.48615489701557,75.65363598150483,2600.0
111.93455843469064,99.3969328397673,75.52239555790588,2633.333333333333
112.04870744010088,99.49516603614964,75.65395124001681,2666.6666666666665
112.0509405212274,99.48363282891971,75.69435687263557,2700.0
112.08831320194956,99.1735272303454,75.44244013562196,2733.333333333333
112.08164078056551,99.31923536439665,75.45530333200584,2766.666666666666
112.25683060109293,99.60608448928122,75.85450819672131,2800.0
112.22792022792022,99.47111427666985,75.70188350743906,2833.333333333333
112.12330472557746,99.34427315109134,75.4296461114643,2866.666666666666
112.19639653898912,99.51176532658016,75.59552073440963,2900.0
112.17450142450144,99.58911047799937,75.64585311807534,2933.333333333333
112.11906653952109,99.38048315321043,75.43655965246874,2966.666666666667
112.187559354226,99.54057191094229,75.656246702543,3000.0
112.15714361084731,99.5385934367416,75.61944708241005,3033.333333333333
112.172446331682,99.60006290791854,75.78886529841944,3066.666666666667
112.08872637676602,99.59146549238552,75.72881444785196,3100.0
112.00013189828005,99.37606837606836,75.53244697689142,3133.333333333333
111.94222822631914,99.2480663276118,75.35455075227803,3166.666666666666
112.29534468263977,99.51161202185793,75.91054539722572,3200.0
112.22199894235857,99.35610787942888,75.74344262295081,3233.333333333333
112.20706436420721,99.56585557299843,75.88377812663526,3266.666666666666
112.08998003362757,99.45962063892394,75.71364018495166,3300.0
112.06904161412358,99.47346574190836,75.70893757881463,3333.333333333333
112.08370113493065,99.46484867591423,75.73615489701554,3366.666666666666
111.92347964040192,99.34127445795878,75.51369645690112,3400.0
111.91985721840295,99.34780539397144,75.50690111052353,3433.333333333333
111.97291915571483,99.22718704367449,75.43156776848532,3466.666666666667
111.7924482924483,99.0321468654802,75.11268772379883,3500.0
111.87400459622678,99.07041312596868,75.0684356795468,3533.333333333333
111.85926263818828,99.09608779650101,75.01363099710206,3566.666666666667
111.80580941692051,99.02835230613009,75.1046710491155,3600.0
111.807011918123,99.03997648442093,75.05820105820106,3633.333333333334
111.71239621034702,99.10304449648712,75.1515595060677,3666.666666666666
111.88891274015239,98.93737254481056,75.07231404958678,3700.0
111.64461358313817,99.004311262508,75.18325526932084,3733.333333333334
111.67138735903488,99.13847364280096,75.49929189614477,3766.666666666666
111.63623165452437,99.02270087635941,75.30540597613769,3800.0
111.82181288099657,99.13474688576729,75.40845481049563,3833.333333333334
111.87227670288895,99.11720116618076,75.48884177047442,3866.666666666666
111.7880201431222,99.15226610124573,75.4611979856878,3900.0
111.61772780065463,99.00089747650722,75.40674163235138,3933.333333333333
111.8238051349572,99.22712310730743,75.5429624753127,3966.666666666667
111.92123765635286,99.29142857142857,75.66664911125741,4000.0
111.98672659968271,99.30867265996828,75.5748810153358,4033.333333333333
112.06783410138249,99.45074391046741,75.70530612244897,4066.666666666666
112.11908295785848,99.41791677710043,75.63766233766232,4100.0
112.11595547309834,99.48020143122184,75.63729128014845,4133.333333333334
112.4066260270342,99.53122183938513,75.86702888947788,4166.666666666667
112.26019082957859,99.5471508083753,75.82438377948583,4200.0
112.35683189089956,99.79603986362444,76.0961972200367,4233.333333333333
112.3007951232441,99.6084283063875,75.84245958123509,4266.666666666667
112.16683521396635,99.50944751969341,75.55801575473706,4300.0
112.33726314668938,99.51338620395997,75.56778262720886,4333.333333333333
112.35975090483288,99.5831381733021,75.64812646370024,4366.666666666666
112.47833723653395,99.68913668298914,75.78254737066213,4400.0
112.49342665531192,99.69980838833298,75.8184213327656,4433.333333333334
112.47479459316195,99.76766498807316,75.85462496686986,4466.666666666667
112.7089897807111,99.88463380881414,75.90227804981903,4500.0
112.7194751969342,99.88774749840323,75.91286991696828,4533.333333333333
112.9123370638578,100.17232389730086,76.27528637261356,4566.666666666666
112.91393485546713,100.26089233347298,76.33894532886468,4600.0
112.92634583158777,100.25594365312107,76.36172496857982,4633.333333333334
113.45027829313543,100.40259740259741,76.378876225815,4666.666666666667
113.38552875695733,100.47855817651735,76.26040286244368,4700.0
113.06140628294328,100.20495994096564,76.20577693442968,4733.333333333333
113.26039221822357,100.64843790747405,76.6151097898086,4766.666666666667
113.31784415584416,100.73592207792208,76.85994805194805,4800.0
113.46106483158277,100.92898535727221,77.11530501371138,4833.333333333333
113.313913908672,100.66168307498951,76.76379870129871,4866.666666666666
113.33913454966086,100.56317366843682,76.63909774436091,4900.0
113.29896419370102,100.59842788790155,76.65658026184343,4933.333333333334
113.11577895788422,100.33048530416953,76.38926862611073,4966.666666666667
113.09214469740783,100.3676060781324,76.41348125558652,5000.0
113.10568378989431,100.36392554813608,76.42312950207686,5033.333333333333
113.20855460329143,100.3830905936169,76.53244124296755,5066.666666666666
113.27321405250099,100.51709546819905,76.68530756170823,5100.0
113.47297439402702,100.40740838109258,76.69078290130922,5133.333333333334
113.54751346214759,100.61809734980469,76.63916165135676,5166.666666666667
113.51677710045055,100.48452160084814,76.57614630267693,5200.0
113.53461436522663,100.48094354624969,76.59591836734694,5233.333333333333
113.56623908878008,100.50974025974024,76.53047157760273,5266.666666666667
113.54086933474687,100.53750331301352,76.62030214683276,5300.0
113.59157440919736,100.56033106238024,76.49547583563977,5333.333333333333
113.62308388332977,100.56198105173516,76.53848200979348,5366.666666666666
113.50262390670557,100.60580439968193,76.51595547309833,5400.0
113.5215478399152,100.59567983037373,76.52157434402329,5433.333333333334
113.70333951762524,100.69570633448187,76.6394381129075,5466.666666666667
113.721685319289,100.7886504279131,76.7667939433838,5500.0
113.5469387755102,100.59294990723562,76.63040021203287,5533.333333333332
113.46511938108576,100.43833533413364,76.39389088968922,5566.666666666666
113.65238937104894,100.37879031393976,76.60417336333441,5600.0
113.6881495767706,100.39135326261652,76.60002142933676,5633.333333333334
113.58392264009429,100.39521054323367,76.39502303653701,5666.666666666668
113.62972784742314,100.40279117111324,76.47163291546126,5700.0
113.69789227166277,100.56168831168831,76.6529433681073,5733.333333333332
113.66148944643568,100.48904818797293,76.47662285941854,5766.666666666668
113.73118479880777,100.6083936555248,76.5879816904407,5800.0
113.8163795388285,100.75088788762258,76.7282533792738,5833.333333333332
113.86016432547042,100.81452425125894,76.83917307182614,5866.666666666666
113.883912006361,100.84972170686457,76.73199045852107,5900.0
113.8182616563764,100.7090696189057,76.59907919948905,5933.333333333334
113.84609064404984,100.84802544394381,76.74728332891598,5966.666666666668
113.72782931354358,100.66456400742115,76.66610124569308,6000.0
113.7139941690962,100.68070500927642,76.6533527696793,6033.333333333332
113.88046157880932,100.96060844479412,77.03126147390506,6066.666666666666
114.0237176097303,100.77398202009519,76.94473823373876,6100.0
113.86812376563527,100.76837393021722,77.03844634628045,6133.333333333334
113.86543778801844,100.76945358788677,77.01200789993416,6166.666666666668
113.77860868639557,100.54534809452842,76.70265595060677,6200.0
113.74012667660207,100.57086970406642,76.69203747072598,6233.333333333332
113.85706334481846,100.68820567187916,76.8587596077392,6266.666666666668
113.85473098330242,100.72740524781342,76.83874900609595,6300.0
113.91529287039492,100.72880996554466,76.90143122183939,6333.333333333332
113.89620991253643,100.76872515239864,76.85936920222635,6366.666666666666
114.0411698956781,100.80913348946136,76.85285820736641,6400.0
114.02451032573984,100.81291249733871,76.8444751969342,6433.333333333334
113.843863104109,100.70425271449864,76.67721417926336,6466.666666666668
113.93578643578644,100.7253220030998,76.60806477473146,6500.0
113.95374707259951,100.84599212263149,76.75902171598892,6533.333333333332
114.02213093029421,100.78820567187914,77.00262390670555,6566.666666666666
113.9377406079915,100.73665206425063,76.7988849064118,6600.0
113.92574007699457,100.74166998539759,76.77942386831278,6633.333333333334
113.87246223164593,100.74010071561092,76.83972965809701,6666.666666666668
113.84817436661699,100.62731530764317,76.74648711943793,6700.0
113.9385922719256,100.6312864090642,76.72510822510823,6733.333333333332
113.91670675004008,100.63489391267169,76.69533963978408,6766.666666666668
113.96301640746086,100.65095398428731,76.71316337983005,6800.0
114.04745050031937,100.7724877581435,76.88194592292953,6833.333333333332
113.92413553524663,100.65795521351076,76.67302656191545,6866.666666666666
113.371757690744,99.69833310746714,75.50735872069386,6900.0
113.87939110070258,100.68253672556948,76.60527996593571,6933.333333333334
113.6695659155382,100.1820639083659,76.01959000160575,6966.666666666668
114.04507824600759,100.59482988837259,76.26563584895581,7000.0
114.25287325883164,100.93098882474443,76.69805624702082,7033.333333333332
114.3498563982555,100.75901499840442,76.611504095309,7066.666666666666
114.26600738396624,100.91347573839664,76.82758438818566,7100.0
114.21904008438818,100.88612869198313,76.75706751054851,7133.333333333334
113.96530805189349,100.81304165134723,76.6906350123431,7166.666666666668
113.8829641350211,100.61964662447258,76.56851265822785,7200.0
113.93896738274073,100.73126214612113,76.71237985188299,7233.333333333332
113.63950110598832,100.24992671161688,76.12413719585321,7266.666666666668
113.62083177219934,100.13097468286678,75.98886688433336,7300.0
113.58505058074186,100.14885189744687,75.97730557191029,7333.333333333332
113.6144088208532,100.12626451854628,76.01873360809294,7366.666666666666
113.62966333030027,100.14497136434193,76.03457688808008,7400.0
113.63092115827223,100.14491783974735,76.05711074238612,7433.333333333334
113.58357865439173,100.17226890756304,75.99582508162501,7466.666666666668
113.6301985762458,100.19461542578816,76.07691484237006,7500.0
113.78753412192906,100.19226034362794,76.23687309318632,7533.333333333332
113.58788738425308,100.24393833966707,76.06372102981321,7566.666666666666
113.75127645995106,100.3844005956813,76.34459100095735,7600.0
113.69057431889955,100.256650430873,76.19108280254777,7633.333333333334
113.63407910935075,100.27252047315744,76.10445324626666,7666.666666666668
113.67406198148048,100.29403736016701,76.12605042016807,7700.0
113.92163100057836,100.98270150901728,77.00807087649194,7733.333333333332
114.13142751557386,101.07631189948263,77.08737197761587,7766.666666666668
113.8178931491625,100.79029398534044,76.76364742928209,7800.0
113.82583154719376,100.7801328358604,76.76523510888836,7833.333333333332
113.64845561880665,100.64713788741302,76.74346405228758,7866.666666666666
113.84062342885872,100.81109258818238,76.76833108412056,7900.0
113.85962266148023,100.77690455399436,76.82657246434336,7933.333333333334
113.83787145087454,100.79836469000557,76.71966870418882,7966.666666666668
113.81733746130031,100.79690931703315,76.67568997909555,8000.0
113.85343071101583,100.7698393797465,76.72829509671615,8033.333333333332
113.82858352517796,100.7849487973327,76.6513455584663,8066.666666666666
113.83183826837076,100.80066682543465,76.73477812177502,8100.0
113.81953375142227,100.84250218305944,76.76928369188431,8133.333333333332
113.86306263396048,100.876055145405,76.8311767352015,8166.666666666666
113.80865814611944,100.92540551983276,76.77423195999047,8200.0
113.8399089730359,100.90606228996323,76.79442195231668,8233.333333333332
113.69449715370018,100.7773561037318,76.79593611638205,8266.666666666668
113.77163556185528,100.9235635351865,76.95251594613751,8300.0
113.81959721558,100.86043360433605,76.73122907699666,8333.333333333334
113.83320048886765,100.8633296136883,76.69730060045698,8366.666666666668
113.83540570699823,100.84972634040064,76.69233221743983,8400.0
113.83707954726606,100.84826505127796,76.6643551729635,8433.333333333334
113.80639247568944,100.85732504383869,76.66114033689355,8466.666666666666
113.90836388756044,100.82129762474095,76.76877092300334,8500.0
113.87970680849938,100.98465243047285,76.79008229472626,8533.333333333334
113.85302088315001,100.87021095701151,76.66905786704926,8566.666666666666
114.03638788848872,101.00258770174736,76.76001067093505,8600.0
114.02582366279846,100.99549152994531,76.77345604908629,8633.333333333332
113.95813234549476,100.86562908083044,76.56389414492445,8666.666666666666
113.95506755856407,100.86434986541587,76.49998667483943,8700.0
114.05484860610912,101.07482993197279,76.81667333600106,8733.333333333332
114.06816059757236,101.07226890756304,76.7873015873016,8766.666666666668
114.05548886221158,101.13346672002136,76.81440576230493,8800.0
114.0983059890623,101.13045218087237,76.81936774709885,8833.333333333334
114.01493930905696,101.16289182339605,76.76900093370679,8866.666666666668
114.09963334927471,101.33596365375419,76.97396248472289,8900.0
113.99437108176605,101.18474056289185,76.7439242363612,8933.333333333334
114.08314148871423,101.15858273133814,77.00701225159429,8966.666666666666
113.90821629400637,100.81496682035021,76.50566319324149,9000.0
114.0810724289716,101.13397358943578,76.8732292917167,9033.333333333334
114.19581235091441,101.28006891068115,77.1074211502783,9066.666666666666
113.58780322536929,100.22881149207208,75.7343813524868,9100.0
113.57660929665266,100.26279983737629,75.74045263585852,9133.333333333332
114.21628988295654,101.24218374218374,76.78413767302656,9166.666666666666
113.6855556747479,100.50295001072728,76.02577236644497,9200.0
113.61782924858605,100.34950175060598,75.89046593051441,9233.333333333332
113.62431995690815,100.41185025585779,75.91842176137894,9266.666666666668
113.60158901158093,100.45890115809318,75.78631834096419,9300.0
113.58941556692702,100.4004847831942,75.72493940210073,9333.333333333334
113.80623793177428,100.65149645998713,76.0465297146535,9366.666666666668
113.56652662962459,100.42615530559696,75.67190676243393,9400.0
113.58124407101236,100.41935221574741,75.69898360211411,9433.333333333334
113.74119440361478,100.20363111764387,75.66397190919484,9466.666666666666
113.61342479176876,100.23373618596548,75.54967608470794,9500.0
113.83899811473202,100.56267169404795,76.0348505251818,9533.333333333334
113.54055746093962,100.26721650607,75.52678425608362,9566.666666666666
113.72063965306951,100.43203686136331,75.77389890229028,9600.0
113.70668112210329,100.41317251660116,75.77089036454804,9633.333333333332
113.68297872340428,100.51497441422028,75.8767573390789,9666.666666666666
113.7863387685046,100.68150611456768,76.08689122505899,9700.0
113.77121325895729,100.68064792962885,76.08689122505899,9733.333333333332
113.87298862904957,100.65978330830292,76.09075305728383,9766.666666666668
113.85552992919972,100.65723557176572,76.04395515983694,9800.0
113.87040004272819,100.75695668429205,76.17246167814987,9833.333333333334
113.83160802402918,100.66101694915254,76.14892190517057,9866.666666666668
113.75654366015877,100.67437245226346,76.12344453979833,9900.0
113.90299828363013,100.66238468139885,76.27596009440033,9933.333333333334
113.95355979276829,100.98899748971851,76.35515141804198,9966.666666666666
113.73234581201186,100.6607325612712,75.95731214651225,10000.0
113.9518773700796,101.00210970464136,76.36351012124126,10033.333333333334
113.90065694600223,100.9864605031245,76.3141056454628,10066.666666666666
113.92354323559259,100.9550285744806,76.32374619452011,10100.0
113.858302622443,100.99943919243714,76.27826737168189,10133.333333333332
113.7548004720017,100.7463795322892,76.02550418365158,10166.666666666666
113.76255095473074,100.72095580347565,76.04239969963527,10200.0
113.74935636129585,100.71468032611028,75.99707680755202,10233.333333333332
113.76748551812916,100.70025209182579,76.03438103411284,10266.666666666668
113.79939927054279,100.70875348637631,76.04138060502036,10300.0
113.80776657369663,100.73101265822784,76.06066294786527,10333.333333333334
113.77882965028965,100.73629585925768,76.07619073160267,10366.666666666668
113.94124114996781,100.69952799828363,76.20987985410855,10400.0
113.98377494099978,100.6789851963098,76.2597082171208,10433.333333333334
113.74196067869649,100.52782116886615,75.84150282790195,10466.666666666666
113.89034876889387,100.78043048656731,76.23054531859209,10500.0
113.83731239651766,100.83036906478662,76.20116968434546,10533.333333333334
113.80843703068012,100.78569512980049,76.08270757348207,10566.666666666666
113.82050525638277,100.78430057927484,76.08568440248874,10600.0
113.83474576271186,100.77432417936063,76.07702209826219,10633.333333333332
113.81959343488519,100.81203068011156,76.09684080669383,10666.666666666666
113.80626475005363,100.81449796181076,76.06766251877279,10700.0
113.85721948079815,100.78384466852606,76.12481227204462,10733.333333333332
114.35364252324177,101.574452439729,77.07321813120437,10766.666666666668
114.483676505128,101.63970876066703,77.19692580704087,10800.0
114.44272151898736,101.43127637130802,76.91136603375526,10833.333333333334
114.4527023478124,101.56121645044384,77.01751667629604,10866.666666666668
114.51662377225695,101.46483533799044,77.13275382110405,10900.0
114.28762014811704,101.42777982036871,77.03807973107831,10933.333333333334
114.07250675282029,101.06871987712515,76.67697685503946,10966.666666666666
114.06525078120865,101.03924580265877,76.59708172236641,11000.0
113.99659610679714,100.93037974683544,76.43396979044782,11033.333333333336
113.91123217433106,100.76721145115631,76.18768359771404,11066.666666666664
113.82840173076409,100.69050498535302,76.08420005912548,11100.0
113.9968620359536,100.9948143814488,76.45952558238484,11133.333333333332
113.88088903222342,100.71764895589777,76.11628906984869,11166.666666666664
113.9066655984618,100.84115793409175,76.2923142658762,11200.0
113.8728533419334,100.79144830551748,76.13128544169422,11233.333333333332
113.85963787854507,100.86735565881537,76.25794477380762,11266.666666666668
113.8224891827246,100.77123814130992,76.09871267704052,11300.0
113.82440893878874,100.71677642232538,75.9535247759905,11333.333333333336
114.13410807360918,100.99986703542177,76.66269545793,11366.666666666668
113.98470907350278,101.00351026486544,76.55496755664291,11400.0
113.96210509520263,100.98197000319115,76.55036698223594,11433.333333333336
114.11572480271171,101.18457708807794,76.8061278533976,11466.666666666664
113.96518987341771,100.96300925433464,76.47675779172428,11500.0
113.9637804488884,100.9752419955324,76.55012764599509,11533.333333333336
113.93189554302731,100.97385916391872,76.51095628124669,11566.666666666664
113.97824699500052,100.9584352728433,76.50303159238379,11600.0
113.87381829834965,100.74186829033808,76.28216631950008,11633.333333333332
113.87108601402343,100.83744580634804,76.30511695123909,11666.666666666664
113.78451449918032,100.6470746324814,76.11835846166251,11700.0
113.8680618744313,100.8911042123856,76.30918482042499,11733.333333333332
113.83525610212038,100.84791432996849,76.24985312182876,11766.666666666668
113.91749183749936,100.91861585398493,76.2649735053257,11800.0
113.9067601562918,100.92709950222128,76.24765829898837,11833.333333333336
114.05507680779318,100.94572606112507,76.44355831504576,11866.666666666668
113.9903655729808,100.941444093561,76.46729647272922,11900.0
114.00763256201458,100.82738047246632,76.30565185842137,11933.333333333336
114.00897292100625,100.97879613309831,76.41724082679058,11966.666666666664
113.97663301821292,100.95558938204347,76.43518666880308,12000.0
113.97388239064252,100.95609677936228,76.4384713988143,12033.333333333336
113.93393152806708,100.93326390001604,76.33266570528228,12066.666666666664
113.7663244241634,100.51847023033464,75.78014993481095,12100.0
113.74986418948284,100.52555953933071,75.76673185571491,12133.333333333332
113.83992766922165,100.58523156644716,75.99619453740691,12166.666666666664
113.75572168843789,100.53918816798014,75.90775126848753,12200.0
113.76970204037569,100.54990283925292,75.8642448450826,12233.333333333332
113.92308312505041,100.75516676072996,76.18984654250316,12266.666666666668
113.92135341558512,100.88655664156386,76.30766971105058,12300.0
114.08668482614964,100.84748704801581,76.46162473962507,12333.333333333336
113.81612328619238,100.60458274856958,75.95020511713268,12366.666666666668
113.84141206952393,100.58847025801576,76.01209111518946,12400.0
113.82981119931343,100.67649109633128,76.14693735249945,12433.333333333336
113.9824814399402,100.88041446349408,76.41721412166855,12466.666666666664
113.91798970178073,100.6678287921047,76.18013838232139,12500.0
113.96768680232869,100.89763926721143,76.41206003311436,12533.333333333336
113.95610191496269,100.68700638320892,76.11257167586281,12566.666666666664
113.97532446723282,100.87630187469955,76.38383271911553,12600.0
113.96463221263672,100.77102313956301,76.21975866053913,12633.333333333332
113.898868553307,100.7105001478137,76.18820715418312,12666.666666666664
113.90653207285158,100.78096458900818,76.34260001068205,12700.0
114.090222975478,101.11863778401569,76.84606217891002,12733.333333333332
114.0577829564112,101.12351040728777,76.71254170859594,12766.666666666668
114.08597285067871,100.81825037707392,76.48055375996552,12800.0
114.13040446304043,100.88845080999891,76.66406501448343,12833.333333333336
114.08264264584386,100.9855555259441,76.6417397329638,12866.666666666668
113.96097718293964,100.68039990324922,76.28974172915156,12900.0
114.09339126703144,101.05163072631693,76.61023495333119,12933.333333333336
114.16210707005686,100.98634803132714,76.72028215856669,12966.666666666664
113.50459849004804,100.03256005490736,75.4543857240906,13000.0
113.81264598389713,100.46222967217169,75.97301530598226,13033.333333333336
113.50543417366949,99.88686274509804,75.28375350140057,13066.666666666664
113.44517580872015,99.78914205344583,75.0314205344585,13100.0
113.44158192090393,99.71502824858757,74.86929378531073,13133.333333333332
113.44610644257703,99.90540616246498,75.10086834733893,13166.666666666664
113.90569755350008,100.690110010399,76.15902249466367,13200.0
113.88074380165293,100.57212121212122,76.05115702479341,13233.333333333332
113.92090823084202,100.91490741992165,76.57040140559533,13266.666666666668
114.14538395168249,100.98673425366695,76.73085634167386,13300.0
113.49631185053572,100.58956549830398,76.21881225434771,13333.333333333336
114.22055805772459,101.11432987767503,76.76110652133359,13366.666666666668
114.18070594479828,101.1731422505308,76.82661889596605,13400.0
114.1657643312102,101.18383757961784,76.8501592356688,13433.333333333336
114.29702760084926,101.23158174097664,76.9463110403397,13466.666666666664
114.3058458952676,101.4398602867798,77.24399915961973,13500.0
114.20968710039404,101.48894804144156,77.28844698452464,13533.333333333336
114.32275586049171,101.56616768023287,77.42678933416498,13566.666666666664
114.3253164556962,101.40543248945148,77.09127109704642,13600.0
114.39777253668764,101.53254716981131,77.29544025157233,13633.333333333332
114.32014767932488,101.43887130801687,77.10501054852321,13666.666666666664
114.3257772363752,101.31518457708808,76.92436841269,13700.0
114.16753198094526,101.06530000535248,76.47436171920998,13733.333333333332
114.44719798747525,101.04868061874431,76.87427072739925,13766.666666666668
113.79476291578204,100.33357831128531,75.72837389079427,13800.0
113.87973980214123,100.49573112887926,75.92500338799296,13833.333333333336
113.99741388797185,100.26568174314957,75.73302520083637,13866.666666666668
114.27211677211676,100.50224775224777,75.80225330225329,13900.0
114.72549019607844,101.00747359421969,76.43366150961089,13933.333333333336
114.61955918276705,100.90836664445924,76.3234787919165,13966.666666666664
114.82040873460251,100.90212765957449,76.20095184770437,14000.0
114.8377379619261,100.91452967525196,76.22609182530795,14033.333333333336
114.93513902736237,101.15115763819651,76.51489974520882,14066.666666666664
114.68023287746469,101.02888998736748,76.53369583127369,14100.0
114.26719371959312,100.64025873507298,75.98476890756302,14133.333333333332
114.44839324618736,100.87657952069715,76.54354575163399,14166.666666666664
114.44938016528928,101.13157894736842,76.69986950848195,14200.0
114.15735261889108,100.50591715976331,75.9744137628753,14233.333333333332
114.3814851107845,100.63775926833252,76.22951712123688,14266.666666666668
114.20352351267107,100.63997831684507,76.15414012738853,14300.0
114.13489632741563,100.61444640195148,76.19951212901478,14333.333333333336
113.93464266230222,100.46661211129296,75.94759956355702,14366.666666666668
113.98611565739228,100.44045280960177,75.94637206764867,14400.0
114.02466318991743,100.59751195132552,76.11082138200783,14433.333333333336
114.0019556714472,100.57382659713168,76.06263581051716,14466.666666666664
114.1272535895498,100.68309403001189,76.21008312641695,14500.0
114.06310050739502,100.65043722336176,76.19507718881572,14533.333333333336
114.01588983050848,100.47688504997828,76.02857453281183,14566.666666666664
114.07451584983231,100.67575462512173,76.17015579357351,14600.0
114.12177161439438,100.79171705770108,76.32406138299874,14633.333333333332
114.30062088529681,100.98568217095756,76.62559546111439,14666.666666666664
114.15963879706524,100.78790077669382,76.28920422478433,14700.0
114.37774982604508,100.99480811432852,76.79679387678638,14733.333333333332
114.29254057511393,101.12117901020709,76.77832262878769,14766.666666666668
114.35908642699144,101.14316552514458,76.80689177304586,14800.0
114.28335920355404,101.03612910132206,76.66188513622009,14833.333333333336
114.22929936305736,101.03537975699837,76.6341326339453,14866.666666666668
114.19712972667904,100.7872288962348,76.41253460184365,14900.0
114.24712305304287,100.99895627040623,76.56754803832361,14933.333333333336
114.15590314171305,100.77526942406408,76.37063613641861,14966.666666666664
114.24407215115343,100.97834930150404,76.5548359471177,15000.0
114.13434921658741,100.75581176597059,76.30062619258781,15033.333333333336
114.26920194829523,100.95319274206499,76.6491730450142,15066.666666666664
114.21985227211904,100.9362789701868,76.6022319755928,15100.0
114.12979056461194,100.63278635431286,76.27280578646227,15133.333333333332
114.13711736407859,100.7083501303448,76.42634846408127,15166.666666666664
114.275040984708,100.67502485957701,76.53304308097503,15200.0
114.28033540272516,100.67655674702358,76.5567201483512,15233.333333333332
114.15762315568813,100.7089145099304,76.42282781047597,15266.666666666668
114.14069176812063,100.69864817651644,76.45402993899326,15300.0
114.0731674403541,100.62844110979164,76.28978192810105,15333.333333333336
114.12865702256286,100.64344704739284,76.27839252941811,15366.666666666668
114.13294828889127,100.64042426859552,76.275585663392,15400.0
114.124068876174,100.64547122962324,76.2864352801468,15433.333333333336
114.18514337928995,100.72401838264936,76.44231234378779,15466.666666666664
114.24621313493552,100.94077503612912,76.68878124498207,15500.0
114.28386768720229,100.9124872879088,76.70127923780976,15533.333333333336
114.24214526574957,100.90603757426537,76.60362361505112,15566.666666666664
114.24602579885456,100.88559117914684,76.62479259219612,15600.0
114.24532997912544,100.88130921158272,76.646630626773,15633.333333333332
114.25721243911578,100.8989990900819,76.65342825028102,15666.666666666664
114.31788008277569,100.64398398236986,76.48738208497944,15700.0
114.3202376491998,100.85080019268857,76.68043140823208,15733.333333333332
114.33479633891771,100.9122731895306,76.73267141251405,15766.666666666668
114.78684921349505,101.47990042900273,77.16593400773264,15800.0
114.59667254179352,101.18928590503658,76.79031138172301,15833.333333333336
114.7120320352603,101.13663361014808,76.70036819049156,15866.666666666668
114.87124622636513,101.5753402891796,77.1692971770563,15900.0
114.8012394514768,101.5379483122363,77.21023206751055,15933.333333333336
114.7094385209307,101.58766216713065,77.29520983244919,15966.666666666664
114.67708388045591,101.53844739744734,77.28055570145493,16000.0
114.68120699616577,101.53731813645676,77.29644414097379,16033.333333333336
114.33339538346985,101.03071481757259,76.7402138070418,16066.666666666664
114.37400276566322,101.00614296351452,76.80188277842781,16100.000000000002
114.31916817359854,100.99000106371662,76.80589830869057,16133.333333333332
114.20266112490556,100.52288675375151,76.3722875958113,16166.666666666668
114.300058877054,100.78980891719746,76.66846866134989,16200.0
114.3811296670567,100.90580789277736,76.81547175832357,16233.333333333336
114.30784670556122,100.8290156827062,76.5823743510143,16266.666666666664
114.30383236096986,100.81997002622705,76.58799443344219,16300.0
114.30126318043142,100.86840978429588,76.63298185516246,16333.333333333332
114.0816764450239,100.50472620599741,76.00736093003044,16366.666666666668
114.10547044763149,100.52816710126032,76.03911342894393,16400.0
114.1497175141243,100.51064754454586,76.0850988700565,16433.333333333332
114.20242414469618,100.80948157703779,76.44870864575775,16466.666666666664
114.07094926350244,100.47381342062192,75.9795962902346,16500.0
114.07454388427077,100.702823059484,76.15953254885027,16533.333333333336
114.12011082138201,100.60354193828769,76.01322794437202,16566.666666666668
114.13448666738638,100.66139479650222,76.17969340386485,16600.0
114.10286415711948,100.47225859247135,75.92094926350245,16633.333333333332
114.53473621973178,100.71017764519337,76.66631728882798,16666.666666666668
114.42285468569432,100.73592410438336,76.61119621596927,16700.0
114.343732213037,100.42610109770972,76.27263856891176,16733.333333333336
114.25176853232144,100.4203550616615,76.22878438812847,16766.666666666664
114.24518227402086,100.46298956498173,76.24548041740073,16800.0
114.22358043095272,100.46952161539505,76.2354248543163,16833.333333333332
114.27817661664687,100.60164093706145,76.37539134189788,16866.666666666668
114.25681768796177,100.49198717948721,76.13279552368536,16900.0
114.24735506855231,100.6506801252294,76.31396415847999,16933.333333333332
114.3228519981725,100.77618318148836,76.55838641188959,16966.666666666664
114.13895253682487,100.44427168576105,76.0545553737043,17000.0
114.11906710310969,100.45646481178396,76.02258592471357,17033.333333333336
114.13478791164114,100.58642092424448,76.16774630708768,17066.666666666668
114.23108064342009,100.69912555327649,76.30511173485912,17100.0
114.54231503130964,100.82920798731493,76.61573812787229,17133.333333333332
114.30732484076435,100.72862463564721,76.39277231998274,17166.666666666668
114.2163666121113,100.5080469176214,76.05403709765412,17200.0
114.23835242771412,100.50310965630115,76.05092744135298,17233.333333333336
114.24484508258664,100.70711432581236,76.29196804490986,17266.666666666664
114.36905049853529,100.86505952860868,76.54051439167944,17300.0
114.1740344220084,100.59940371324028,76.14129285811086,17333.333333333332
114.2519582599268,100.56384333920586,76.16546957582328,17366.666666666668
114.22818810136872,100.59281745493969,76.14408456430411,17400.0
114.24155034557528,100.58785743325654,76.1373356823418,17433.333333333332
114.2052310611194,100.59726250169399,76.11218322265891,17466.666666666664
114.18685458734244,100.60948638026831,76.10166689253286,17500.0
114.23545195825993,100.60501422957041,76.20143650901205,17533.333333333336
114.22344491123457,100.65014229570404,76.1021818674617,17566.666666666668
114.53637560805186,100.92496439033569,76.64476336370234,17600.0
114.5306989072812,100.84112301200909,76.5714865303473,17633.333333333332
114.43798543363165,100.97543605041793,76.58547663199764,17666.666666666668
114.48794646456504,100.98024671450456,76.59757048026016,17700.0
114.42097342040907,100.99798435862292,76.53564997715607,17733.333333333336
114.44478486387705,101.013840737456,76.56069768066865,17766.666666666664
114.39307694375016,100.99126555403265,76.56308957510282,17800.0
114.39799510871029,100.99134617968771,76.52898492300253,17833.333333333332
114.30554275647108,100.70884943759316,76.21637078194877,17866.666666666668
114.272909608348,100.7183358178615,76.14473505895106,17900.0
114.4317235077535,101.00120938482624,76.53121556612648,17933.333333333332
114.28117240634785,100.89271834178992,76.32648709921192,17966.666666666664
114.36438385805474,100.92383425294815,76.42872984961592,18000.0
114.43618479400145,101.05028353355371,76.58324598887367,18033.333333333336
114.40495579026579,101.01843639979576,76.54828132978581,18066.666666666668
114.48719395845093,100.98376736810988,76.70313633798277,18100.0
114.41094896396034,101.01849015023248,76.55008196941601,18133.33333333333
114.3220338983051,100.93528014682067,76.38116700852855,18166.666666666668
114.33663898519177,101.07766938106371,76.48840334327717,18200.0
114.33677336128358,101.07406810180332,76.49098336423984,18233.333333333336
114.39659759735548,101.11736407858317,76.55018947028945,18266.666666666664
114.37832244886991,101.12053535434977,76.50984976752936,18300.0
114.33466479542265,101.03222498110763,76.31968584691784,18333.33333333333
114.31048256504371,101.05651516787218,76.29288567418762,18366.666666666668
114.43605041790966,101.18081646913382,76.58461662501009,18400.0
114.50644971364342,101.28665096611894,76.75718567681851,18433.33333333333
114.44326392977574,101.30241395921426,76.65950329176258,18466.666666666664
114.50350586094312,101.26259166086818,76.6895305893058,18500.0
114.45699298827812,101.26235080019268,76.72654284643794,18533.333333333336
114.75964075367108,101.41651786904032,77.11968659222346,18566.666666666668
114.67649175172559,101.44985742078192,76.94214215281296,18600.0
114.66276683634035,101.42581883111693,76.96119713242545,18633.33333333333
114.6283346214322,101.43229485915306,76.96034432214908,18666.666666666668
114.62097913279855,101.44116941609148,76.94688590997521,18700.0
114.5213316095669,101.16305753070459,76.63184119801767,18733.333333333336
114.64043386722813,101.48554220078351,76.97612131226181,18766.666666666664
114.59553436759322,101.32150937297995,76.70976082740789,18800.0
114.63157185951306,101.30198233139409,76.74288946347771,18833.33333333333
114.44979984853407,101.11324786324785,76.42102131342637,18866.666666666668
114.42672833495621,101.17010169858273,76.45447906523856,18900.0
114.49030381383322,101.32525317819434,76.57183257918551,18933.33333333333
114.3316764450239,101.05136353759235,76.24057475010865,18966.666666666664
114.45892122873501,101.3302426832218,76.61834502405333,19000.0
114.46644628987612,101.32156198769115,76.58657851595045,19033.333333333336
114.77269941102793,101.58947845321535,77.20813900807505,19066.666666666668
114.7126917712692,101.46902156420984,76.96928977577512,19100.0
114.65745528980824,101.35315664727429,76.88612368024133,19133.33333333333
114.54408741750515,101.15316996646109,76.60754084171805,19166.666666666668
114.77078639630942,101.48256624825665,77.01603905160391,19200.0
114.64223766429649,101.26812648136179,76.8051335918983,19233.333333333336
114.67802280147728,101.46004389016754,76.96652036610824,19266.666666666664
114.68589091687632,101.46587807097364,76.97163196488788,19300.0
114.7321642725795,101.6221783972497,77.03467206779844,19333.33333333333
114.5680029973773,101.42378097735909,76.85481453727988,19366.666666666668
114.57576406358723,101.43651983086228,76.80910453353316,19400.0
114.59064390087246,101.43202376492,76.81036236150511,19433.33333333333
114.59067066316973,101.47184606326609,76.80701707434568,19466.666666666664
114.56765508751272,101.48865278595517,76.80490285286089,19500.0
114.67564298959931,101.32833454271817,76.67580424090946,19533.333333333336
114.5868704169566,101.56002783278916,76.77174436653642,19566.666666666668
114.6501632500134,101.51485307498794,76.8603810951132,19600.0
114.69196595835787,101.49499545040949,76.87954289996254,19633.33333333333
114.46881423780157,101.26084604565615,76.44866385372714,19666.666666666668
114.47833495618308,101.2317429406037,76.480282375852,19700.0
114.93731422505309,101.99413481953293,77.21759554140128,19733.333333333336
115.0901621795215,101.85965851308676,77.01399668147515,19766.666666666664
115.22652772965915,102.10414945500094,77.23161794099619,19800.0
115.27463155931032,102.0833888548357,77.2661301068678,19833.33333333333
115.43888859709018,102.413624665161,77.73722359367616,19866.666666666668
115.26574399915962,102.32556856977786,77.63845264982405,19900.0
115.06471433131183,101.9402596020853,77.18656240025534,19933.33333333333
114.9752367273114,101.9126768805192,77.19672305564421,19966.666666666664
114.78384829953869,101.6398455101384,76.77507778135394,20000.0
114.70811786252962,101.43581663434604,76.57183257918551,20033.333333333336
114.6169263226225,101.2907605755707,76.43316563886185,20066.666666666668
114.64724656496807,101.31794330844966,76.46110570161203,20100.0
114.79964596073386,101.63391803454563,76.867181632872,20133.33333333333
114.69982223658694,101.51028873087697,76.69098793363499,20166.666666666668
114.65465416936004,101.4959060547296,76.62763951734541,20200.0
114.55182300119007,101.31237152439684,76.42605214757113,20233.333333333336
114.69710191769016,101.48699095022623,76.72274294333117,20266.666666666664
114.59017634966999,101.28153737963864,76.53023909985936,20300.0
114.71250808015512,101.44281943546648,76.78978129713424,20333.33333333333
114.6891564318035,101.46420491273432,76.778953889248,20366.666666666668
114.60864307022496,101.36104168346368,76.6701066946169,20400.0
114.59407118900788,101.26271232283892,76.51287460781131,20433.33333333333
114.69551282051279,101.43242296918768,76.6884830855419,20466.666666666664
114.67475386779185,101.24413069349777,76.5800876338851,20500.0
114.677790346908,101.39385369532428,76.73976513682395,20533.333333333336
114.62839635572041,101.30960251552044,76.62799322744497,20566.666666666668
114.70127666451195,101.4010989010989,76.71498599439775,20600.0
114.59904792816185,101.22749648382559,76.49951314508277,20633.33333333333
114.7865761689291,101.4386446886447,76.80316742081449,20666.666666666668
114.6684247538678,101.250135237477,76.51035919073894,20700.0
114.83738332796908,101.57662804420129,76.90014483424525,20733.333333333336
114.76931157078216,101.42364253393663,76.66704374057316,20766.666666666664
114.6319376825706,101.23363626528185,76.49139889646219,20800.0
114.57151781833986,101.11122881355931,76.36924163407217,20833.33333333333
114.60359190738936,101.2053716325868,76.42513253272747,20866.666666666668
114.60940711890079,101.1740776804068,76.43495077355838,20900.0
114.56231742940605,101.16223087742077,76.44758195391107,20933.33333333333
114.660992138791,101.12800216860936,76.56096503117375,20966.666666666664
114.64911952041963,101.31651768987852,76.7605844885725,21000.0
114.58422215039862,101.19090713208358,76.55596854126266,21033.333333333336
114.47251974467164,100.99799848534029,76.38090987774531,21066.666666666668
114.42281203212194,100.9023547025997,76.22477201578876,21100.0
114.43293861440044,100.91528515040152,76.19697835851369,21133.33333333333
114.41363821968149,100.9345311011297,76.17599020008167,21166.666666666668
114.45507009663807,100.93978494623656,76.23862801143324,21200.0
114.47984211242685,100.9397577242412,76.26100449162924,21233.333333333336
114.48985980672384,100.95636314141828,76.25498843065195,21266.666666666664
114.50562134204435,100.99951000408329,76.27780046277394,21300.0
114.53797777175386,101.12572512876119,76.40466251016535,21333.33333333333
114.50164693072,100.93156390363413,76.27744657683408,21366.666666666668
114.4456240642439,100.90649244589628,76.19746835443037,21400.0
114.50425589590674,101.03711032800214,76.3515315803741,21433.33333333333
114.72473447055036,101.2836873725995,76.85610449522584,21466.666666666664
114.53867700926523,101.13192199956906,76.58381814264169,21500.0
114.58947425123895,101.12160633484163,76.69497414350356,21533.333333333336
114.63088724385796,101.25557880055788,76.80211350713442,21566.666666666668
114.56127450980392,101.06860051712992,76.54021223874166,21600.0
114.66095461450311,101.36207126295872,76.8943314766943,21633.33333333333
114.5617138575175,101.19903120483863,76.6640796445967,21666.666666666668
114.59471177005837,101.1808596049885,76.71575764063587,21700.0
114.5766739816946,101.21420542739388,76.64783493015041,21733.333333333336
114.71718679210085,101.41702422514193,76.94486048556885,21766.666666666664
114.7000772859313,101.44703248674143,76.92210111131841,21800.0
114.68954511318528,101.36576011157601,76.76805063834351,21833.33333333333
114.71177677691016,101.43392052874238,76.95085680782455,21866.666666666668
114.67579884337609,101.44641952935534,76.85648802068066,21900.0
114.90826959464864,101.43909069104285,77.09583455480639,21933.33333333333
114.64000746208993,101.37054606508008,76.91335980598566,21966.666666666664
114.80578556263269,101.53174097664544,77.19665605095541,22000.0
114.80663481953293,101.52664543524416,77.19442675159236,22033.333333333336
114.63987421048424,101.3282253551155,76.91690429869679,22066.66666666667
114.735388961437,101.37430376036032,76.99618900407752,22100.0
114.6346678798908,101.16656853824331,76.74078038858856,22133.33333333333
114.70644671268288,101.32257548703464,76.98949977347228,22166.66666666667
114.75347664543524,101.47852972399151,77.12850318471337,22200.0
114.74469214437369,101.48619957537157,77.07335456475585,22233.333333333336
114.7673036093418,101.4738322717622,77.07659235668791,22266.666666666664
114.76873673036094,101.47462845010617,77.0714702760085,22300.0
114.77030254777071,101.44787685774948,77.10315817409767,22333.33333333333
114.79336518046708,101.444957537155,77.08633227176222,22366.66666666667
114.88513711590224,101.30999653545824,77.06889108013752,22400.0
114.83380613391857,101.1078252957234,76.85449338971256,22433.33333333333
114.8190976201263,101.31012978706394,76.99432348159796,22466.666666666664
114.83412840124724,101.3302507795219,76.99437678224022,22500.0
114.82189590384563,101.37262479012873,76.98246408869227,22533.333333333336
114.8041201396477,101.33907203581805,76.9811582229566,22566.66666666667
114.7401593689204,101.37371745329531,76.97374943368068,22600.0
114.76446446179676,101.35967273405643,76.94142259414227,22633.33333333333
114.77099379047516,101.32292194120943,76.97524185166431,22666.66666666667
114.71558777283266,101.329291367961,76.9699650880793,22700.0
114.76593022945929,101.30946352903551,76.98187778162729,22733.333333333336
114.56763148700584,101.03139025504585,76.50839850573786,22766.666666666664
114.58270848450644,101.00948695208149,76.5031847133758,22800.0
114.57625843209976,101.0269827192346,76.51697170039508,22833.33333333333
114.62791260178992,101.06186675266736,76.5930554435755,22866.66666666667
114.89494443408043,101.39751619007008,77.16110119126934,22900.0
114.7497001838872,101.39199957359486,76.9698051861525,22933.33333333333
114.87417728237793,101.53893312101914,77.1167728237792,22966.666666666664
114.94444591273093,101.7503237571689,77.3237307397521,23000.0
114.92626265295874,101.75621745910088,77.32764225493564,23033.333333333336
114.95747548695721,101.74112641065624,77.38504638316991,23066.66666666667
114.8542728237792,101.56547239915078,77.13593418259023,23100.0
114.95322039273728,101.71810661521792,77.37143536749741,23133.33333333333
114.92361973729416,101.70394058725586,77.28443058382007,23166.66666666667
114.91154161270713,101.67248989084757,77.2213970452203,23200.0
114.92480904934322,101.66453471469723,77.24610830668392,23233.333333333336
114.83320559240956,101.697069006528,77.19436001797182,23266.666666666664
114.71740976645435,101.48009554140127,76.93296178343951,23300.0
114.82488040806619,101.66133678674316,77.13373153262678,23333.33333333333
114.92195470042549,101.62444168406586,77.32394217300525,23366.66666666667
114.64735576923077,101.33677884615385,76.8460202991453,23400.0
114.64225427350428,101.3397702991453,76.81113782051283,23433.33333333333
114.67184829059828,101.33621794871792,76.8321047008547,23466.666666666664
114.5719343418088,101.21526660229587,76.5889121338912,23500.0
114.596314773093,101.23916425276258,76.58655187211674,23533.333333333336
114.99910140867405,101.85500964664215,77.18497766736262,23566.66666666667
114.94270192153296,101.4884922121715,76.66381202162394,23600.0
114.97069528448324,101.48383557244554,76.66161751324735,23633.33333333333
114.9282770433014,101.51710110795908,76.68835304822566,23666.66666666667
115.28707349948463,102.05571266220896,77.27956761899728,23700.0
115.31938487289464,102.28938696516373,77.53358091850613,23733.333333333336
115.27742392073604,102.25315194883491,77.55372074126498,23766.666666666664
115.10434850986869,102.18859269743912,77.42043458887055,23800.0
115.09700925270636,102.1900605488716,77.40690938638569,23833.33333333333
114.99437058963447,101.80532283214842,77.25649496524565,23866.66666666667
114.83748271092672,101.63426960314928,77.03771677838068,23900.0
114.80051069262687,101.65323438663687,77.04995212256622,23933.33333333333
114.78109373337593,101.64586658155123,76.94842536440045,23966.666666666664
114.76326963906584,101.60061040339704,76.92707006369427,24000.0
114.78309447983015,101.58301486199578,76.94875265392781,24033.333333333336
114.60980581482671,101.36026177448773,76.50453277545326,24066.66666666667
114.62262632764723,101.34046776096987,76.54420126595859,24100.0
114.66663995726496,101.52804487179488,76.67855235042734,24133.33333333333
114.56569166127993,101.25175070028013,76.31415643180348,24166.66666666667
114.53514867485457,101.26217410040941,76.26023486317605,24200.0
114.5404546433958,101.26182396035335,76.28011204481794,24233.333333333336
114.57021654815772,101.30955074337429,76.31361775479422,24266.666666666664
114.54325576384399,101.31822344322345,76.28474466709761,24300.0
114.86726209634159,101.55007509923828,76.80444694775237,24333.33333333333
114.73785001609272,101.55498337088295,76.72333977041092,24366.66666666667
114.6692792501616,101.4019069166128,76.47958414134885,24400.0
114.75879733934127,101.58993133783927,76.72985731144726,24433.33333333333
114.59319112260289,101.41311139840552,76.46005709976298,24466.666666666664
114.59216763628528,101.38984055160526,76.40621633268692,24500.0
114.65804783451841,101.44914889032536,76.48184658478777,24533.333333333336
114.63106011635423,101.45068411980176,76.47225813402285,24566.66666666667
114.59849709114414,101.38940960999784,76.40764382676147,24600.0
114.60124434389141,101.3856927386339,76.37618508942037,24633.33333333333
114.78367934333609,101.65820963142606,76.79455267435974,24666.66666666667
114.55005509419763,101.33567147733076,76.35808540944394,24700.0
114.63790611786115,101.49542364716585,76.58224053952792,24733.333333333336
114.70876529062176,101.66476561042559,76.77277936199131,24766.666666666664
114.84218431498766,101.59526874798841,76.79444265636734,24800.0
114.83901941851731,101.60240317562493,76.83118764081107,24833.33333333333
114.51601211727795,101.28021205236395,76.29506112733961,24866.66666666667
114.53775830358109,101.31266904684628,76.35586389700313,24900.0
114.64183365653952,101.49213531566471,76.46097285067873,24933.33333333333
114.64016012117278,101.3678459374662,76.3442605214757,24966.666666666664
114.72508314558523,101.76448342452528,76.6458266280442,25000.0
114.7193434180882,101.7602456817938,76.65161999785431,25033.333333333336
114.73830597575369,101.76614633623001,76.70338482995386,25066.66666666667
114.62947599421936,101.68725579403736,76.60362361505112,25100.0
114.7359457139792,101.78285591674714,76.70689840145907,25133.33333333333
114.71287951936488,101.74074670099778,76.72325930694132,25166.66666666667
114.75579336981008,101.74597682652077,76.66009548331724,25200.0
114.73970067589316,101.7450649071988,76.70612058791977,25233.333333333336
114.77102778671816,101.72036262203626,76.75118013088725,25266.666666666664
114.86680613668061,101.69370239244715,76.93823087651539,25300.0
114.806914494153,101.7132818367128,76.84406179594464,25333.33333333333
114.7049127343245,101.53595669036844,76.60595776772247,25366.66666666667
114.68118401206637,101.56528765352293,76.5954535660418,25400.0
114.68479314802843,101.57762335703512,76.54349816849815,25433.33333333333
114.6476513682396,101.60299504417152,76.56585326438267,25466.666666666664
114.64272247360479,101.62079831932772,76.55308661926307,25500.0
114.68438914027149,101.64598146951089,76.56838504632624,25533.333333333336
114.74766655938204,101.85886707434824,76.78028108572042,25566.66666666667
114.94813034188034,102.02355769230768,77.06092414529914,25600.0
114.88000214569252,101.87984121875336,76.86618925008047,25633.33333333333
114.9077888638558,101.88893359081644,76.84100418410041,25666.66666666667
114.9863247863248,102.04548611111113,77.06006944444445,25700.0
114.99169337606837,102.0456997863248,77.00900106837607,25733.333333333336
114.96942388155777,101.8252333440618,76.96234309623429,25766.666666666664
114.8876729964596,101.82440188820942,76.89700675893144,25800.0
114.89593391267029,101.81276150627615,76.92739512927797,25833.33333333333
115.11482604532394,102.17586977338014,77.39576018725397,25866.66666666667
115.01380876068376,101.97056623931624,77.15109508547009,25900.0
114.90803025426456,101.85041841004185,76.93946464971569,25933.33333333333
114.95526175213676,102.01519764957266,77.06567841880343,25966.666666666664
115.08421108628578,102.24332375784658,77.30944781359719,26000.0
114.98263888888887,102.04113247863249,77.08298611111111,26033.333333333336
114.92297008547008,102.06808226495727,76.9744123931624,26066.66666666667
114.93736645299143,102.06412927350428,77.01826923076923,26100.0
114.94487179487179,102.07003205128208,77.02248931623932,26133.33333333333
114.98002136752136,102.08191773504274,77.03098290598291,26166.66666666667
115.07758804128099,102.2895520800085,77.276731567188,26200.0
114.95365918803421,102.10261752136749,77.03229166666667,26233.333333333336
115.23441323545056,102.29753165230343,77.54832960953294,26266.666666666664
115.06108440170941,102.12809829059827,77.20870726495727,26300.0
115.04716880341878,102.12940705128206,77.14927884615385,26333.33333333333
115.01714743589744,102.09850427350428,77.14081196581195,26366.66666666667
114.81124757595344,101.76710299504416,76.75646412411119,26400.0
114.79719531124552,101.82882834662529,76.92982925654339,26433.33333333333
114.96127919320595,102.16595010615713,77.26058917197453,26466.666666666664
114.79069704805,101.7280758457229,76.80626481361776,26500.0
114.82516191189852,101.81983621474069,76.87231707969812,26533.333333333336
115.0197983014862,102.14705414012741,77.35459129511678,26566.66666666667
114.9948779193206,102.16703821656051,77.27576963906581,26600.0
115.00992569002123,102.16457006369428,77.26491507430998,26633.33333333333
115.01326963906584,102.1734872611465,77.28399681528663,26666.66666666667
114.9906050955414,102.14869957537157,77.26602972399152,26700.0
115.18256369426751,102.10337048832271,77.42173566878982,26733.333333333336
114.8802703572578,101.90003754961914,76.88944319279047,26766.666666666664
115.21841055051931,102.40574041282343,77.54013267436636,26800.0
115.0308344215548,102.04277376542387,77.12920075686912,26833.33333333333
115.04973460721868,102.19538216560508,77.23545647558387,26866.66666666667
114.98001225914771,102.02707672627457,77.03488527036751,26900.0
115.03792735042737,102.06509081196579,77.11487713675214,26933.33333333333
114.9471790635077,101.9754550542334,77.12008634704048,26966.666666666664
114.92839058710658,101.98920661993978,77.06510673453616,27000.0
114.91087329685655,101.8880753138075,76.91175839502198,27033.333333333336
115.02765392781315,102.10273354564757,77.202016985138,27066.66666666667
114.91658449484316,101.94811182474749,76.98614183300909,27100.0
115.17802679916485,102.2725638924862,77.50236540951978,27133.33333333333
114.87447698744772,101.90229992271408,77.09364922847321,27166.66666666667
115.1267628205128,101.9644497863248,77.26087072649571,27200.0
115.15293803418804,101.96092414529915,77.25950854700854,27233.333333333336
115.10681987445473,102.1207043302479,77.37134269603149,27266.666666666664
115.08753590807531,102.11495903819558,77.38022661985319,27300.0
114.99107905982906,101.97037927350428,77.1542467948718,27333.33333333333
114.99830148619957,102.03219214437368,77.213508492569,27366.66666666667
114.86994421199442,101.847226692415,76.85411972964275,27400.0
114.89432464327862,101.85017701963308,76.842506168866,27433.33333333333
114.90524085398563,101.85146443514644,76.9071987984122,27466.666666666664
114.88383757107607,101.87748095697886,76.83000750992383,27500.0
114.88925544469477,101.84218431498766,76.90518721167257,27533.333333333336
114.86785216178521,101.85307370453812,76.90714515609913,27566.66666666667
114.90073489968887,101.79806351249869,76.88955047741659,27600.0
114.90282694989807,101.79731252011587,76.8934663662697,27633.33333333333
115.679523287957,103.14470870494966,78.43091847911123,27666.66666666667
115.69498996938023,102.6158536585366,77.99915531622848,27700.0
115.3519974415692,102.09969885137116,77.1742397995896,27733.333333333336
115.52419589290905,102.4278616169358,77.5498850331686,27766.666666666664
115.25929645585009,102.28001691466022,77.32777440071888,27800.0
115.48391916332469,102.65882938848264,77.79586380435637,27833.33333333333
115.44583366097878,102.54024796204556,77.82097454850462,27866.66666666667
115.30235118345522,102.4690833792037,77.73979712196272,27900.0
115.12470862470863,102.15983259165077,77.35052447552448,27933.33333333333
114.99684182590237,101.97263800424628,77.11616242038218,27966.666666666664
115.06388888888887,101.9236378205128,77.10558226495726,28000.0
115.04118589743591,101.92801816239313,77.10208333333334,28033.333333333336
114.89494623655916,101.7841935483871,76.89094086021504,28066.66666666667
114.95803952991452,101.88792735042736,77.06338141025641,28100.0
114.91458333333334,101.8849626068376,77.0269764957265,28133.33333333333
115.03887096774193,101.7162365591398,76.97478494623654,28166.66666666667
114.83900661357808,101.4993656363882,76.70770684302875,28200.0
114.81193143474151,101.50878661087866,76.67806721554865,28233.333333333336
114.7018704255896,101.35150447275684,76.5306316074817,28266.666666666664
114.75821298420841,101.52452422729114,76.65431232285059,28300.0
114.75158579560856,101.30536730821359,76.47836812144213,28333.33333333333
114.78560655031242,101.449768368886,76.66219564748977,28366.66666666667
114.79737664296488,101.41626265890972,76.69174208144796,28400.0
114.72277039848196,101.27150989428029,76.51409596096501,28433.33333333333
114.83459392769016,101.5891803454565,76.87383327969101,28466.666666666664
114.69959338574141,101.29929520195176,76.42062889671998,28500.0
114.79319746254556,101.51591307868809,76.64373059792146,28533.333333333336
114.71561398753047,101.36679316888045,76.37156410951476,28566.66666666667
114.91771269177129,101.76349104173373,76.8354790258556,28600.0
114.92449844437292,101.75198476558307,76.84296212852698,28633.33333333333
115.01274004935092,101.73873511425812,77.00528376783606,28666.66666666667
114.95362622036262,101.72945499409936,76.9383381611415,28700.0
114.79376524803469,101.45031173759828,76.54052588777445,28733.333333333336
114.64763849190146,101.27559548114876,76.27309105757452,28766.666666666664
114.8635713321636,101.62405182885679,76.72498312862734,28800.0
114.8622756107437,101.61562963962747,76.72465919827238,28833.33333333333
114.82882980159266,101.584424348765,76.65180186259954,28866.66666666667
114.84250616886601,101.64325179701748,76.81793798948611,28900.0
114.81914494152988,101.66371633944857,76.80058470121232,28933.33333333333
114.77803813833224,101.49938052143936,76.6186166774402,28966.666666666664
114.64262144325436,101.33084496375635,76.27580331061344,29000.0
114.65206101914964,101.3231364275668,76.28356594179378,29033.333333333336
114.75207390648563,101.4939129497953,76.45270415858651,29066.66666666667
114.67702585740558,101.34252948177,76.297847019366,29100.0
114.9515998707175,101.43756733462617,76.7299073475544,29133.33333333333
114.66761332900572,101.3341177107,76.39091745104403,29166.66666666667
114.68402325076056,101.19543133420252,76.3116036505867,29200.0
114.7078987396784,101.188314863103,76.35742611907868,29233.333333333336
114.6864135158627,101.21631899174272,76.28797262059975,29266.666666666664
114.73801795953695,101.34653251108948,76.48352807530024,29300.0
114.6994211835984,101.36002921129507,76.41609866926322,29333.33333333333
114.65899006397169,101.21290322580644,76.2940247720158,29366.66666666667
114.58132859486058,101.06298523783488,76.01563696008748,29400.0
114.58581191908146,101.0393657736468,76.08373428102789,29433.33333333333
114.74429297847021,101.3144541815428,76.51655306718598,29466.666666666664
114.69888023369036,101.29265390024885,76.4256734826355,29500.0
114.66761943650472,101.19082618755957,76.2339458282292,29533.333333333336
114.62588811759899,101.19180617939293,76.2467129440588,29566.66666666667
114.87568971113278,101.2796981499513,76.65611814345992,29600.0
114.88942983879691,101.2837552742616,76.66339391972303,29633.33333333333
114.72086984745212,101.32324461754841,76.4677593854809,29666.66666666667
114.75676187385048,101.33695769771721,76.48333874283242,29700.0
114.72414259439577,101.35031916044571,76.3973818024451,29733.333333333336
114.7794547224927,101.35386238234341,76.51944714919398,29766.666666666664
114.57864953526516,101.10773646801529,76.1018589393111,29800.0
114.59158009841444,101.09136139967195,76.10970475669765,29833.33333333333
114.70850687355384,101.26285558731456,76.385082346536,29866.66666666667
114.71250850687358,101.2755682591534,76.38061793929495,29900.0
114.8118576219842,101.41883046629879,76.57386670994265,29933.33333333333
114.6911664625017,101.29132979447394,76.31950455968422,29966.666666666664
114.68936981080714,101.2975364094188,76.36243364638628,30000.0
114.69399755002041,101.28278208792706,76.34912209064925,30033.333333333336
114.66955219817612,101.27842656866748,76.29394310602967,30066.66666666667
115.04366484282801,101.66792726102352,76.99243643385903,30100.0
114.88825145442793,101.4899536737772,76.75503663003663,30133.33333333333
114.89186059039,101.50638332255976,76.78891941391942,30166.66666666667
114.75315094596434,101.23797468354431,76.33423165918062,30200.0
114.76929358922008,101.23095140873826,76.32916836804137,30233.333333333336
114.74580100721384,101.23585136790527,76.4069688308153,30266.666666666664
114.78306791887846,101.24791071185518,76.38263236695249,30300.0
114.74239825779229,101.24524295630873,76.25689397032802,30333.33333333333
114.78261927945472,101.38434490966135,76.48815319701394,30366.66666666667
114.81978253813696,101.41228497241156,76.47868657362328,30400.0
114.81710483609214,101.43205669155034,76.47416964189118,30433.33333333333
114.69783585136793,101.33891384238464,76.23282972641893,30466.666666666664
114.8244888023369,101.44752785892028,76.46759710050848,30500.0
114.74084660405607,101.30681910984077,76.28240097999179,30533.333333333336
114.97206959706959,101.5004309416074,76.80903900021545,30566.66666666667
114.801686059039,101.39948287007108,76.64872872225813,30600.0
114.54108802624386,100.95051940951339,76.05951339529798,30633.33333333333
114.67486205777344,101.19168559991344,76.49245374878286,30666.66666666667
114.64513686032672,101.21161960402466,76.42048036351834,30700.0
114.45136686714052,100.92545106615637,75.99341170038272,30733.333333333336
114.679244774833,101.3840228399052,76.5326976944624,30766.666666666664
114.49778567523235,100.91230180426464,75.99209950792783,30800.0
114.50180426462549,100.910087479497,76.00169491525423,30833.33333333333
114.49103035252486,101.08368041377432,76.14830543078806,30866.66666666667
114.4598961180973,100.91905412793876,75.95071077091306,30900.0
114.43023510114814,100.92025697102241,75.90131219245491,30933.33333333333
114.43097320940404,100.92277200656096,75.91530891197375,30966.666666666664
114.4517769272827,100.93687807545106,75.88127392017495,31000.0
114.45429196282122,100.94726626571895,75.87449425915803,31033.333333333336
114.72427783187277,101.27139456886292,76.3653575678892,31066.66666666667
114.72405395279131,101.50778782850719,76.599047262217,31100.0
114.6488964621876,101.26303689278372,76.30282375851995,31133.33333333333
114.5647816166884,101.07559213385484,76.03550086918732,31166.66666666667
114.5018862766539,100.90289775833789,75.81998359759432,31200.0
114.49209950792783,100.89461454346636,75.83370694368506,31233.333333333336
114.43329688354292,100.8925915800984,75.80511208310554,31266.666666666664
114.5417441224713,100.86041552761073,75.8475943138327,31300.0
114.518589393111,100.88952979770364,75.8648715144888,31333.33333333333
114.54220885729907,100.87586112629852,75.9021323127392,31366.66666666667
114.60843046896177,101.18641908376252,76.23971265925725,31400.0
114.61073461642721,101.18134995933858,76.23645974518841,31433.33333333333
114.61067102218591,101.05452565673063,76.01028991425072,31466.666666666664
114.58502790254525,101.07665713896827,76.03683135973867,31500.0
114.70750857927248,100.85260123541524,76.00241592312972,31533.333333333336
114.49592673592129,100.89106068890105,75.89117003827228,31566.66666666667
114.51752323674135,100.94149808638599,75.95798250410058,31600.0
114.6019599836668,101.09429699196951,76.15315094596434,31633.33333333333
114.59915611814344,101.11190962297538,76.13458554512044,31666.66666666667
114.53788955713505,100.95650628758884,75.90123018042647,31700.0
114.56338641622429,101.08071321627877,76.06304614128216,31733.333333333336
114.50185893931109,100.9223619464188,75.89368507381083,31766.666666666664
114.67086834733894,101.33354880413704,76.45916828269769,31800.0
114.67905623787978,101.33074768368886,76.48257379875027,31833.33333333333
114.67886508709292,101.16190630747593,76.27120523639509,31866.66666666667
114.49917987971571,100.87810278840895,75.9156916347731,31900.0
114.5053034445052,100.87176052487698,75.87985237834883,31933.33333333333
114.66167484997273,100.98998908892528,76.07815057283143,31966.666666666664
114.73402868318121,101.19094958713605,76.25271621034334,32000.0
114.67892290869328,101.0486604702023,76.08881902679059,32033.33333333333
114.668505896354,101.1826246889538,76.35975873634098,32066.66666666667
114.68166939443537,101.04187124931806,76.10084560829242,32100.0
114.62274153413394,101.23907281185762,76.32289300010821,32133.33333333333
114.72427783187277,101.23966785675648,76.33249486097587,32166.666666666664
114.78433289873968,101.25505215123859,76.21694372012169,32200.000000000004
114.77955236853542,101.25423728813558,76.19850065189048,32233.333333333336
114.72071273079096,101.41054583568493,76.43537853745063,32266.666666666664
114.66880341880342,101.24813372281729,76.24218327382884,32300.0
114.85875706214688,101.29003694046068,76.22688504997828,32333.333333333336
114.61556623198356,101.02728894989706,75.80010981468772,32366.66666666667
114.6558956760467,101.00980096087852,75.73990391214825,32400.0
114.67022649279345,101.00291008922443,75.76820864790666,32433.33333333333
114.66970487302677,100.9848455730954,75.79157172271792,32466.66666666667
114.79407000686342,100.92908716540838,75.94712422786547,32500.0
114.70844723892836,101.09743028977584,76.05522143247677,32533.33333333333
114.73783488244942,101.1145981410607,76.0491798797157,32566.66666666667
114.78721208170359,101.26252172968277,76.14349739243808,32600.0
114.70913067249865,101.11738655002732,75.96776927282669,32633.33333333333
114.7228041462084,101.09893617021277,76.04470812875068,32666.666666666664
114.68824331696672,101.11931260229132,76.05911074740862,32700.000000000004
114.6943535188216,101.17318603382436,76.07585924713584,32733.333333333336
114.68136933988,101.1770867430442,76.07043098745227,32766.666666666664
114.69969994544464,101.21429350791054,76.01644844517185,32800.0
114.62986959505837,101.08930679478381,75.81449553877832,32833.333333333336
114.65257378174331,101.11058339052849,75.83541523678792,32866.666666666664
114.87408326440584,101.28138957816375,75.92514474772541,32900.0
114.85632754342431,101.30821615660324,75.9025641025641,32933.33333333333
114.803346371143,101.21319534984792,76.2945458496306,32966.66666666667
114.73573989569752,101.19190026075621,76.20477509778358,33000.0
114.694018904824,101.19866362451107,76.17266949152544,33033.33333333333
114.74209582790093,101.17348435462843,76.22150695349849,33066.66666666667
114.80460992907801,101.17858701582108,76.1090561920349,33100.0
114.74068339852242,101.18711973055193,76.20347131681878,33133.333333333336
114.85237315875614,101.21451172940534,76.10147299509002,33166.666666666664
114.82122204037098,101.229705400982,76.13344244408073,33200.0
114.83897981451172,101.21647572285869,76.1626568466994,33233.333333333336
114.70053780964798,101.23625597566277,76.1509398087788,33266.666666666664
114.70177076183941,101.14852436513384,75.8836238846946,33300.0
114.5716264667536,101.28400695349848,76.00258039982617,33333.333333333336
114.59256424275559,101.17859486057957,75.85852925095679,33366.666666666664
114.68686341798215,101.18144131777625,75.835772134523,33400.0
114.69279341111874,101.18374742621826,75.83170899107756,33433.33333333333
114.72818480043743,101.18439037725531,76.03020776380536,33466.66666666667
114.57974302897759,101.15360852925095,75.88873701476217,33500.0
114.65240656236419,101.34408952629292,76.13939591481964,33533.33333333333
114.60628531073445,101.34305736636246,76.08156779661017,33566.66666666667
114.69639186411335,101.47092394244291,76.26687763713079,33600.0
114.71021313426377,101.46738072054528,76.27071838147788,33633.333333333336
114.58029117774879,101.28827140373751,75.99603433289873,33666.666666666664
114.53102788408968,101.15724439584473,75.81055221432477,33700.0
114.51960087479496,101.14034991798798,75.7305631492619,33733.333333333336
114.62103433289872,101.29756084311173,75.95382442416341,33766.666666666664
114.62935079105291,101.2666393889798,75.85990180032734,33800.0
114.63276050190944,101.2393344244408,75.90564648117841,33833.333333333336
114.65769034373406,101.49506839743073,76.28270042194093,33866.666666666664
114.50105932203392,101.26876901347241,75.93108974358975,33900.0
114.70831969448992,101.25496453900708,76.0647026732133,33933.33333333333
114.62007637752322,101.27695035460992,75.95177304964541,33966.66666666667
114.64509001636664,101.29345335515549,75.97146753955266,34000.0
114.68769776322969,101.2873431533006,75.97195853791598,34033.33333333333
114.57419530823786,101.31377523186035,75.91963993453355,34066.66666666667
114.59507194633775,101.46786757546249,76.19019798766634,34100.0
114.57825968357884,101.34858156028368,75.94468085106384,34133.333333333336
114.60684669939992,101.38535188216042,76.00463720676488,34166.666666666664
114.58548827059464,101.3950900163666,75.90957446808511,34200.0
114.57817785051829,101.40864702673214,75.8720130932897,34233.333333333336
114.64097108565191,101.36917621385707,75.98608837970541,34266.666666666664
114.65785597381344,101.45076377523186,75.92495908346973,34300.0
114.71587561374795,101.38243316966722,75.9817512274959,34333.333333333336
114.67433169667214,101.38968903436992,75.90518276050192,34366.666666666664
114.7689852700491,101.3557555919258,76.00668303327878,34400.0
114.78368794326242,101.33273322422261,76.07094926350246,34433.33333333333
114.6442444080742,101.33870703764322,75.90027277686852,34466.66666666667
114.64754500818331,101.34735406437534,75.94140752864158,34500.0
114.54270764847686,101.21575717729564,75.68984220907298,34533.33333333333
114.59127114020731,101.40504637206766,75.92163120567376,34566.66666666667
114.59159847244958,101.40812875068194,75.9360338243317,34600.0
114.51890203813281,101.26632697786543,75.76060157790927,34633.333333333336
114.8604536489152,101.55804843304844,76.01832675871138,34666.666666666664
114.79291845493564,101.42684604379885,75.82827115659735,34700.0
114.69454446262958,101.47637752318606,75.97951445717403,34733.333333333336
114.82180587652692,101.4922141520854,75.86271596786621,34766.666666666664
114.90603769449922,101.61253561253562,76.11102892833662,34800.0
114.69776322967812,101.45286415711948,76.0423076923077,34833.333333333336
114.78166611643006,101.4599977990536,75.84989545504567,34866.666666666664
114.89149334213712,101.4445911742049,76.00910641575878,34900.0
114.7961373390558,101.37971827885993,75.884807967426,34933.33333333333
114.68982542280416,101.36039279869068,76.0240043644299,34966.66666666667
114.64896344789965,101.35060010911077,75.96121112929625,35000.0
114.64798145117294,101.36249318057828,75.93300600109113,35033.33333333333
114.71931260229131,101.36633933442444,75.9847244953628,35066.66666666667
114.6454446262957,101.39849972722315,75.90883797054009,35100.0
114.66181123840698,101.43963447899618,75.97474086197491,35133.333333333336
114.68947081287509,101.49064375340971,75.93276050190944,35166.666666666664
114.57251260135875,101.33727810650889,75.83990795529256,35200.0
114.56700635546792,101.34040105193951,75.82971729125578,35233.333333333336
114.60116699539778,101.35218058294979,75.84894806048652,35266.666666666664
114.64491562568486,101.38568376068376,75.9109412667105,35300.0
114.50747408619749,101.40807419530823,75.92935079105293,35333.333333333336
114.82375886524824,101.58164211674853,76.29375340971086,35366.666666666664
114.77392253136937,101.55300054555374,76.19282596835788,35400.0
114.75411893071468,101.54765411893072,76.14645390070922,35433.33333333333
114.74147109952196,101.52917209908735,76.18771729682747,35466.66666666667
114.69904389395916,101.52213711429813,76.12133311603652,35500.0
114.73326814428509,101.45045632333769,76.21745980008694,35533.33333333333
114.98430962343096,101.99538676107714,76.759950649072,35566.66666666667
115.1312958304341,102.05906439008726,76.72301022319756,35600.0
115.13092115827223,102.0712947599422,76.73770272440187,35633.333333333336
115.0736112230912,101.9495820903545,76.5372893654761,35666.666666666664
114.95754615135486,101.73448126956707,76.27115945158157,35700.0
115.02491569876359,101.9359578226195,76.59436386019377,35733.333333333336
114.91463811330983,101.67815126050421,76.29918677148278,35766.666666666664
114.72560228664759,101.4811487682047,76.08139376616306,35800.0
114.69669252756228,101.4963930856132,76.07001497209745,35833.333333333336
114.86827728208648,101.32348661633492,75.98336307481125,35866.666666666664
114.71922533681007,101.46762277270751,76.14270969143851,35900.0
114.82816726171156,101.62890836308556,76.43392296873309,35933.33333333333
114.74935086011035,101.65346748891052,76.26974467164341,35966.66666666667
114.77663757810816,101.73777203188969,76.44015298427063,36000.0
114.8563399882246,101.86766043997216,76.62476582989885,36033.33333333333
114.70309964297306,101.63921345883371,76.17827004219409,36066.66666666667
114.63885890100401,101.52199611357011,76.1602612544532,36100.0
114.58336049543678,101.46085940895264,75.98454476314646,36133.333333333336
114.59452411994785,101.42359300304216,76.07640699695784,36166.66666666666
114.59823057030079,101.42145093235334,76.05683952633728,36200.0
114.60313052946779,101.41959983666807,76.08809037702464,36233.333333333336
114.62417313189056,101.41905539676058,76.10434190826187,36266.66666666666
114.54879542670477,101.44614128215599,76.02986252892337,36300.0
114.76947151681536,101.19390528483184,75.9794921070693,36333.333333333336
114.73975988700563,101.58075293350716,76.22370708387658,36366.66666666666
114.66971553014835,101.42479923778411,76.09372533006669,36400.0
114.68406152170954,101.42439090785356,76.11702735810535,36433.33333333333
114.61461821151494,101.454770654689,76.08256431196406,36466.66666666667
114.72834529280551,101.72256712085787,76.44448923647505,36500.0
114.671826708592,101.72334650219034,76.45013303233091,36533.33333333333
114.628259452412,101.48848326814432,76.0989787049109,36566.66666666667
114.61778997940976,101.35802333562114,75.84521619766646,36600.0
114.62984214138642,101.34937542896364,75.83258750857928,36633.333333333336
114.65362885701867,101.46569426336376,76.10544328552805,36666.66666666666
114.63317579313343,101.45398739678402,76.0849358974359,36700.0
114.623995002173,101.42883528900478,76.11826379834855,36733.333333333336
114.50554948059047,101.27375615090212,75.86238381629306,36766.66666666666
114.88000545553736,101.32269503546101,76.139852700491,36800.0
114.82431551499347,101.30541069100391,76.2718654932638,36833.333333333336
114.67128422425031,101.28895045632336,76.10316166883963,36866.66666666666
114.74263502454993,101.28884342607748,76.04350791052919,36900.0
114.70643753409712,101.31377523186035,76.06511183851609,36933.33333333333
114.7485815602837,101.325831969449,76.04184397163121,36966.66666666667
114.62174330816748,101.21065202470831,75.85213452299244,37000.0
114.65356211393274,101.18064516129031,75.86594371997255,37033.33333333333
114.77381342062193,101.33982542280417,76.05523731587563,37066.66666666667
114.75079105291871,101.35245499181671,76.06849427168576,37100.0
114.7949809056192,101.4081560283688,76.0010911074741,37133.333333333336
114.85670773916657,101.3954312612488,75.7490793299183,37166.66666666666
114.67763898421414,101.34177076183941,75.84831846259438,37200.0
114.67225806451613,101.35467398764584,75.8324227865477,37233.333333333336
114.71863066012008,101.47094926350245,75.99192580469176,37266.66666666666
114.87714129841792,101.38248772504092,76.1358156028369,37300.0
114.75960186086769,101.51498431245268,76.31072162717732,37333.333333333336
114.76384831764578,101.51474088499405,76.34877745320783,37366.66666666666
114.70253164556965,101.52623607053988,76.28867791842475,37400.0
114.7081304771178,101.51322622525154,76.28318727685816,37433.33333333333
114.72246564968084,101.48369036027263,76.36495185545819,37466.66666666667
114.67900032456993,101.49940495510117,76.31275018933246,37500.0
114.68081250676188,101.48753110461969,76.33674131775398,37533.33333333333
114.57298457192526,101.32545632333769,76.12453824424163,37566.66666666667
114.53892837616185,101.18288682340076,75.94302897758338,37600.0
114.6163074811256,101.18690459849005,75.92071379547015,37633.333333333336
114.46484417714598,101.20677966101697,75.88816293056315,37666.66666666666
114.62490048043928,101.2075772134523,75.82297872340426,37700.0
114.65297326786688,101.36669394435353,76.01257501363884,37733.333333333336
114.81884888161484,101.32670485542826,76.11091107474088,37766.66666666666
114.649263502455,101.33278777959629,75.9790234588107,37800.0
114.63873431533008,101.33630660120022,75.91595744680852,37833.333333333336
114.66192034915441,101.30466448445172,75.96538461538462,37866.66666666666
114.54490048043928,101.1801509951956,75.75256005490733,37900.0
114.64525368248772,101.3017184942717,75.9202400436443,37933.33333333333
114.54835964310229,101.13822923816059,75.69205216197665,37966.66666666667
114.54706932052162,101.13751544269043,75.7181880576527,38000.0
114.71923023674374,101.13487470580091,75.65645853523465,38033.33333333333
114.72627515853323,101.28028673835124,75.72343534601599,38066.66666666667
114.69860168904889,101.10616087498268,75.67849923854355,38100.0
114.57004909983637,101.23390616475723,75.84901800327333,38133.333333333336
114.83264553758116,101.25343897876087,75.7729723781226,38166.66666666666
114.69444829018411,101.1855461719507,75.53753288107434,38200.0
114.74779905359304,101.32010014306152,75.76268295367008,38233.333333333336
114.84901507648287,101.3047760537031,75.90252558600199,38266.66666666666
114.73739958182018,101.33834048640915,75.87534389787609,38300.0
114.7682953670078,101.38076372840321,75.85682843622756,38333.333333333336
114.62804928699984,101.25958742904608,75.6484563200886,38366.66666666666
114.59108019639936,101.37356792144028,75.93494271685762,38400.0
114.56339334424442,101.37779596290235,75.94476268412437,38433.33333333333
114.5456082924168,101.34803600654665,75.92062193126023,38466.66666666667
114.81812952005258,101.48348126232742,76.06730769230771,38500.0
114.77024435678284,101.45167652859959,76.02717510409819,38533.33333333333
114.82755314486084,101.4643600701293,76.0108755204909,38566.66666666667
114.80040543502079,101.5220523778216,76.00347907078677,38600.0
114.79273504273505,101.53087332895029,76.00731426692965,38633.333333333336
114.73308022449652,101.40010454495432,75.79269836029492,38666.66666666666
114.73308022449652,101.40695499064596,75.75685044569165,38700.0
114.86929129525696,101.36169803015295,75.88736656762408,38733.333333333336
114.8244301994302,101.52750383519613,76.02043611658996,38766.66666666666
114.86376835415298,101.54270764847686,76.0436938417708,38800.0
114.85555007670393,101.55125465702388,76.07434801665572,38833.333333333336
114.8127876397107,101.564677843524,76.04736467236468,38866.66666666666
114.973032714412,101.55860411140587,75.94048408488064,38900.0
114.88779311856236,101.55215866754328,76.06092483015559,38933.33333333333
115.0644327060636,101.69285792890943,76.0928799383735,38966.66666666667
114.85176966907736,101.60681021257945,75.96496274380891,39000.0
114.8693841770765,101.58034735919351,76.00416392724084,39033.33333333333
114.889409379794,101.60933048433048,76.0545419680035,39066.66666666667
114.82653955730879,101.58979837825993,76.0436938417708,39100.0
114.65141843971632,101.4361429350791,75.96426623022369,39133.333333333336
114.82336182336184,101.60313938198557,75.98531667762438,39166.66666666666
114.99589086127548,101.56358207319748,76.1271093578786,39200.0
115.00432829278984,101.56267806267807,76.15190116151655,39233.333333333336
114.65111838516094,101.40488270594652,75.87689579923622,39266.66666666666
114.69001636661213,101.4358701582106,75.8406437534097,39300.0
114.66437534097106,101.45990180032732,75.81838516093836,39333.333333333336
114.69326241134752,101.45927441352974,75.88180578286962,39366.66666666666
114.68546099290779,101.4847244953628,75.88199672667758,39400.0
114.71483906164758,101.48445171849428,75.8703491543917,39433.33333333333
114.89314405194231,101.49933971607791,75.89160338945746,39466.66666666667
114.88549576317816,101.5204137779245,75.86931880708705,39500.0
114.95189568266493,101.73208415516108,76.0008218277449,39533.33333333333
114.75332787779594,101.56467539552642,75.91164757228587,39566.66666666667
114.75032733224224,101.55971085651936,75.96273867975997,39600.0
114.77010365521005,101.54028914348065,75.95515548281506,39633.333333333336
114.88777924507538,101.52869483878072,75.80210740618466,39666.66666666666
115.04092702169626,101.64672364672366,76.12089086127548,39700.0
114.78751211408002,101.38925654160322,75.700235359269,39733.333333333336
114.60857457954228,101.24210090984283,75.612158808933,39766.66666666666
114.9140887786049,101.5291976840364,75.84017094017094,39800.0
114.91058726220017,101.52503446374412,75.8577612351806,39833.333333333336
115.00884642604387,101.74998639011378,76.23956121726823,39866.66666666666
114.97501643655492,101.6966633793557,76.00126013587553,39900.0
114.98556322594784,101.69233508656586,76.14308021038791,39933.33333333333
114.91143941895015,101.5895234951029,75.94681963244194,39966.66666666667
115.05221345605965,101.75605413105413,76.16746110015342,40000.0
114.8184124386252,101.60602836879431,76.10853791598474,40033.33333333333
114.81061102018549,101.63611565739224,76.03897981451173,40066.66666666667
114.75512272627657,101.47468770545694,75.93392504930965,40100.0
114.73326210826212,101.49545255314487,75.86686390532545,40133.333333333336
114.90455537370431,101.59969994544464,76.1336333878887,40166.66666666666
114.82182214948172,101.5855701036552,76.03668848881615,40200.0
114.70370370370372,101.46997589305279,75.83423734385273,40233.333333333336
114.93501705733463,101.55722460658085,75.96764608781777,40266.66666666666
114.80477359519917,101.58966175668304,76.01022913256956,40300.0
114.76583388121848,101.42340565417489,75.88573854920006,40333.333333333336
114.8203491543917,101.57176759410801,76.00821058374251,40366.66666666666
114.84710856519371,101.58286961265684,76.0746863066012,40400.0
114.86391162029459,101.57239498090564,76.0904255319149,40433.33333333333
114.82476813966177,101.59072558647028,76.05163666121113,40466.66666666667
114.73101368970012,101.61671555845284,76.12396784006955,40500.0
114.7199587136028,101.64689265536724,76.07825401999129,40533.33333333333
114.76504780530205,101.65425358539764,76.02979682746633,40566.66666666667
114.77230008691872,101.65840938722296,76.05644285093437,40600.0
114.7809376358105,101.64203063885269,76.11171773142112,40633.333333333336
115.04722492697177,101.80920696743479,76.38585956940388,40666.66666666666
114.92156226333441,101.79571026722924,76.31870063832089,40700.0
114.94876820470941,101.71925956172588,76.26081393766162,40733.333333333336
114.87261320240043,101.62100381887615,76.08131478450628,40766.66666666666
114.89348033210834,101.6648700149721,76.19798557234245,40800.0
114.87682047094052,101.63280250442357,76.17462910031307,40833.333333333336
114.772505784674,101.61548931536682,76.12260786715666,40866.66666666666
114.80304886348169,101.59501837484687,76.1298216959303,40900.0
114.78453790662857,101.58524567850824,76.02289369810806,40933.33333333333
114.85486581729464,101.7447275684467,76.31946326917864,40966.66666666667
114.84383301707778,101.73060449986444,76.32306858227162,41000.0
114.8685009487666,101.69883437245865,76.34581187313634,41033.33333333333
114.8119504559684,101.5536681638764,76.15821423710358,41066.66666666667
114.76284197631685,101.58467401660542,76.0632911392405,41100.0
114.78996719518862,101.41238381629309,76.06503553854566,41133.333333333336
114.73034445051941,101.43802624384908,75.92176052487699,41166.66666666666
114.8404246631278,101.60827548659316,76.15924867292773,41200.0
114.89715370018976,101.76747085931143,76.36752507454594,41233.333333333336
114.76437944231822,101.45571350464735,75.89376708583926,41266.66666666666
114.9181621035511,101.7202493900786,76.37804283003524,41300.0
114.8576307942532,101.69550013553808,76.32005963675793,41333.333333333336
114.89248006895063,101.77916936005172,76.47169252316311,41366.66666666666
114.81382488479264,101.58807264841421,76.26741664407699,41400.0
114.804960693955,101.56909731634589,76.27039848197344,41433.33333333333
114.99551896342287,101.76042650830072,76.53113780537184,41466.66666666667
114.8413662239089,101.58099756031444,76.26175115207374,41500.0
114.97260089080852,101.74479686867323,76.56690511540019,41533.33333333333
114.85580946250404,101.82936380216715,76.56627507778136,41566.66666666667
114.91251086484137,101.49581703607129,76.33371360278142,41600.0
115.03302499188575,101.657605755707,76.5028399870172,41633.333333333336
114.78079114617577,101.4504985754986,75.81054131054131,41666.66666666666
114.95564648117839,101.58177850518277,76.07449536279323,41700.0
114.85897435897436,101.47441376287529,75.89576484768794,41733.333333333336
114.99964539007091,101.6633933442444,76.20062738679759,41766.66666666666
115.11626123164585,101.77870918255535,76.12116480385711,41800.0
114.89773595199127,101.64683578832516,76.07247681396619,41833.333333333336
115.13576594345824,101.70307363576595,76.15507889546352,41866.66666666666
114.85924713584288,101.5571467539553,76.04173486088379,41900.0
115.03942033749728,101.64277887354812,76.10913872452335,41933.33333333333
115.02624369932064,101.61445321060707,76.08344291036599,41966.66666666667
115.13154722770108,101.64154613193077,76.20540214770985,42000.0
115.12823252246328,101.64710716633795,76.21052487398643,42033.33333333333
115.18499238543541,101.61852415893671,76.01954866399005,42066.66666666667
115.40105219437906,101.62284369375605,76.22766163643915,42100.0
115.532063403782,101.78954393770857,76.22636262513905,42133.333333333336
115.62375663129973,101.97889036251104,76.46590406719717,42166.66666666666
115.44924067348957,101.91452074391987,76.33633212281279,42200.0
115.35965665236051,101.78305413263188,76.12789699570816,42233.333333333336
115.15235126710935,101.88033608890093,76.48345304241766,42266.66666666666
115.33664803857113,101.92644641683106,76.38193074731538,42300.0
115.15777625257378,101.68431022649281,76.21781743308168,42333.333333333336
115.3540707867631,101.9228577690116,76.3975728687267,42366.66666666666
115.45828698553949,101.76167964404895,76.12708565072303,42400.0
115.46320912124584,101.75859288097887,76.1337597330367,42433.33333333333
115.0938250709762,101.95664992356407,76.58208670015287,42466.66666666667
115.90042279815506,102.32110696244234,76.73259389413573,42500.0
113.1703125,99.03059659090908,73.07786931818181,42533.33333333333
113.75924773755658,99.46544117647059,73.90460972850678,42566.66666666667
113.46682692307692,99.44349547511312,73.60608031674208,42600.0
113.64517045454544,99.5265625,73.5984943181818,42633.333333333336
113.70471590909092,99.61826704545454,73.683125,42666.66666666666
113.69693181818182,99.63241477272727,73.68497159090909,42700.0
113.84982954545454,99.6759375,73.7915056818182,42733.333333333336
113.8378125,99.69673295454544,73.74355113636364,42766.66666666666
113.6884703196347,99.42011986301372,73.4148401826484,42800.0
113.69009703196345,99.40964611872144,73.40824771689499,42833.333333333336
113.5187215909091,99.32894886363636,73.35045454545455,42866.66666666666
113.57292613636363,99.33375,73.40698863636364,42900.0
113.50778409090908,99.37133522727272,73.26173295454545,42933.33333333333
113.54491477272728,99.33363636363636,73.34102272727273,42966.66666666667
113.43005681818182,99.30164772727272,73.30150568181818,43000.0
113.3819318181818,99.31806818181818,73.25741477272727,43033.33333333333
113.36739253393664,99.17471719457014,73.39007352941177,43066.66666666667
112.79217316513764,98.39377866972478,72.35484518348625,43100.0
112.92639204545456,98.703125,72.84855113636364,43133.333333333336
115.7592955522892,102.43328433774292,76.88804507594317,43166.66666666666
115.78326180257513,102.24735886431164,76.63656872455154,43200.0
115.87050654711462,102.35759000574068,76.87444301686668,43233.333333333336
115.72562451854296,102.22449653350941,76.61662264773851,43266.66666666666
115.76419610432488,102.21869153736107,76.66080664685816,43300.0
115.68545724661604,102.21847144272036,76.55128205128206,43333.333333333336
115.76719489380432,102.227220204688,76.63202927258722,43366.66666666666
115.63754151015296,102.30878109859002,76.75249060917851,43400.0
115.64870161685448,102.30986988948773,76.74497795198431,43433.33333333333
115.61661735700199,102.19392395353935,76.61122068814377,43466.66666666667
115.59182555336399,102.20564869603331,76.54451566951569,43500.0
115.71216852947624,102.18630834976987,76.70332018408942,43533.33333333333
115.55689787420557,102.18491124260358,76.57314266929652,43566.66666666667
115.51465754162851,102.44250148192057,77.22339278978285,43600.0
115.52349517702216,102.42725117206446,77.21595624292719,43633.333333333336
115.34063852813853,102.21666666666668,76.92316017316017,43666.66666666666
115.40449346405228,102.20364923747276,76.84433551198256,43700.0
115.24418191265349,102.01416577788716,76.57743320480216,43733.333333333336
115.24057017543859,101.97206688596492,76.6124725877193,43766.66666666666
115.3864651416122,102.1916394335512,76.79027777777776,43800.0
115.28801925233135,102.01132168348512,76.57702299887876,43833.333333333336
115.24713539530177,102.0043208357262,76.59586512429239,43866.66666666666
115.40785940932388,102.36205353510698,76.9855178585957,43900.0
115.22326141056143,102.00226980610935,76.49596630842017,43933.33333333333
115.60145888594164,102.13196286472149,76.31874447391688,43966.66666666667
115.21481481481482,102.19300108932457,76.7183551198257,44000.0
115.18684640522876,102.19131263616558,76.7411220043573,44033.33333333333
115.27749301657042,102.30461313155969,76.87004040897133,44066.66666666667
115.2541425975646,102.33721150977681,76.90242182626855,44100.0
115.05056471682116,101.97650887412148,76.4039434462767,44133.33333333334
115.22813440728987,102.2242833509614,76.84921216065956,44166.66666666666
115.08769063180829,102.04046840958605,76.59945533769061,44200.0
115.13020152505446,102.02840413943356,76.59433551198256,44233.33333333334
115.19613289760349,102.01955337690632,76.67821350762526,44266.66666666666
115.12592592592593,102.01748366013071,76.63278867102395,44300.0
115.16797385620914,102.04803921568629,76.62132352941177,44333.33333333334
115.13295206971678,102.05531045751634,76.61898148148148,44366.66666666666
115.129302832244,102.09926470588236,76.640522875817,44400.0
115.1501633986928,102.09049564270151,76.62224945533771,44433.33333333333
115.11783769063179,102.09090413943356,76.58877995642702,44466.66666666667
115.06217388916347,101.76888010106005,76.35804910199373,44500.0
115.05633494680995,101.9878305576066,76.31383487844232,44533.33333333333
115.1364448051948,102.24575216450216,76.67881493506493,44566.66666666667
115.10248329076781,102.14888876813562,76.53271205781665,44600.0
115.10848774656306,102.13446177253708,76.53211432918546,44633.33333333334
115.14005991285404,102.15046296296295,76.62753267973856,44666.66666666666
115.08373634733464,102.06588599684834,76.50722708254091,44700.0
115.01537792751179,102.05471933923815,76.49299027332499,44733.33333333334
115.11853354978355,102.1986471861472,76.64805194805194,44766.66666666666
115.22816004430292,101.84156167797316,76.01891180949744,44800.0
115.2484563200886,101.83610688079744,76.05036688356638,44833.33333333334
115.26614944426106,101.97325850115548,76.23717948717949,44866.66666666666
115.04706368899916,101.71301350978771,76.06283429831818,44900.0
115.26491141190712,101.99350720809947,76.21786618245845,44933.33333333333
115.30740650340357,102.28443576600763,76.95679765682206,44966.66666666667
115.07604080507308,101.72056796250344,75.94218362282878,45000.0
115.11486412447952,101.88751917598071,76.08744247205786,45033.33333333333
115.23251500272778,102.047599563557,76.32880523731588,45066.66666666667
115.15033630748111,101.90317089910776,76.06745367192862,45100.0
115.21748499727224,101.96674849972723,76.36385706492091,45133.33333333334
115.15881069285324,102.02064920894709,76.32815057283143,45166.66666666666
115.014667535854,101.94983159495872,76.34216101694916,45200.0
114.84658888126287,101.64631434454357,75.98410432395332,45233.33333333334
115.20897435897436,102.09599018003271,76.3449809056192,45266.66666666666
115.03066601477622,101.90819209039549,76.36041395045632,45300.0
114.98541395045632,101.87241960017384,76.31814971751412,45333.33333333334
115.2342334969995,101.98925259138024,76.45831969448992,45366.66666666666
114.98842894393742,101.86856258148632,76.319833767927,45400.0
115.00847457627121,101.85576923076924,76.319833767927,45433.33333333333
114.96634773100055,101.7045106615637,76.24349371241115,45466.66666666667
115.09519504711812,101.83431952662724,76.2464113521806,45500.0
115.09524983563446,101.84541420118343,76.21857878588649,45533.33333333333
115.09670173131713,101.87436993206222,76.11730221345606,45566.66666666667
115.14820293666449,101.88168419899188,76.19088319088321,45600.0
115.14119000657465,101.88151983344292,76.25153407845715,45633.33333333334
115.11345315904137,102.13382352941177,76.62418300653594,45666.66666666666
114.85142072752231,101.60129032258064,75.92793411118737,45700.0
114.79868222374745,101.63698009608784,75.87895676046669,45733.33333333334
115.16179193899782,102.1410947712418,76.69937363834423,45766.66666666666
115.25210858894043,102.33878447644621,76.84226941122229,45800.0
115.07554452715743,101.78842018196858,75.98842018196856,45833.33333333334
115.28519512922735,102.32259376779757,76.84362541697178,45866.66666666666
115.05020678246484,101.79159084642956,75.96388199614006,45900.0
115.35052748623652,102.31806470859436,76.9495837062349,45933.33333333333
114.9857942199044,101.87146892655369,76.24280204259018,45966.66666666667
115.03857018687529,101.85984354628422,76.30945784441549,46000.0
115.19920384351408,101.8701166781057,76.2228140013727,46033.33333333333
115.24055541995493,102.27730317576544,76.86914544517668,46066.66666666667
115.10642404190791,101.65448028673836,76.03300248138956,46100.0
115.03997794320378,101.71039426523298,75.95494899365869,46133.33333333334
115.17833905284832,101.86124914207278,76.13078929306795,46166.66666666666
115.33092961702587,102.48266083292822,76.97312699184357,46200.0
115.34043645006213,102.47682709447416,76.98182358342788,46233.33333333334
115.34824177604926,102.49184356938368,77.01914870631448,46266.66666666666
115.35307621671257,102.5072381569708,77.02879057959271,46300.0
115.39250796737429,102.53956679090368,77.0668179117377,46333.33333333334
115.34654026900014,102.5596067628153,77.03300383514288,46366.66666666666
115.52633284718848,102.49354507643278,77.17741586992923,46400.0
115.53994490358127,102.49878463782207,77.21166207529843,46433.33333333333
115.35240101550262,102.50318694971102,77.03540755145033,46466.66666666667
115.28739264300762,102.51458434613515,77.07427213309566,46500.0
115.32274617836114,102.49052017501215,77.08988278506995,46533.33333333333
115.30413763301465,102.50186355533951,77.08788418948845,46566.66666666667
115.3216388483768,102.48673904823634,77.09863339275104,46600.0
115.30737859882244,102.50089126559715,77.07254361799815,46633.33333333334
115.21525235266995,102.30415208960486,76.82770590947305,46666.66666666666
115.22916497165949,102.28443576600763,76.84818159628995,46700.0
115.28847666314104,102.28006942749435,76.85759227619124,46733.33333333334
115.29560925338323,102.27648957231578,76.8435440566268,46766.66666666666
115.30963035283268,102.29978575109158,76.80137227781844,46800.0
115.4179225409172,102.48552368605844,77.03176146491654,46833.33333333334
115.24437935616848,102.35408022130017,76.76896374040625,46866.66666666666
115.41577848290078,102.34344913622436,76.96205895912998,46900.0
115.30472161201963,102.35527350635971,76.96487945108886,46933.33333333333
115.29615165568302,102.38464459089306,76.96520489246873,46966.66666666667
115.24166734466957,102.3564125511892,76.9359151682803,47000.0
115.25994630217232,102.3422558511648,76.91397499525398,47033.33333333333
115.25631220676377,102.32606514251621,76.916442925718,47066.66666666667
115.24164022455454,102.32880427413012,76.91562932226832,47100.0
115.29292436199928,102.33395709597806,76.89629268028095,47133.33333333334
115.07108004385964,102.0092927631579,76.42066885964913,47166.66666666666
115.13374183006536,102.18665577342048,76.69447167755992,47200.0
115.04780701754385,102.02935855263156,76.48821271929825,47233.33333333334
115.03494954467142,102.01610741925779,76.47113517652528,47266.66666666666
115.02253397872398,102.02338173763228,76.44542893866054,47300.0
115.06185905324472,102.01129433642357,76.45593021029892,47333.33333333334
115.29635076252724,102.16508714596952,76.83910675381263,47366.66666666666
115.0878661087866,102.00992698334564,76.42992315475702,47400.0
115.10564169879946,102.00686411245114,76.42335985998304,47433.33333333333
115.1280936363388,101.98977219897722,76.48592993682828,47466.66666666667
115.09661716848524,101.99989061175377,76.50966718626084,47500.0
115.06256881744108,101.85776811275049,76.31229354767672,47533.33333333333
115.0223794318432,101.8797896939,76.28963884606915,47566.66666666667
115.09827130587976,101.89462673419952,76.28889561770535,47600.0
115.19065241228071,102.0794682017544,76.53481359649123,47633.33333333334
115.13681469298244,102.0564144736842,76.49161184210527,47666.66666666666
115.22480345053505,102.19021620441143,76.7444856955667,47700.0
115.15328128412315,102.19753221227344,76.67836863944092,47733.33333333334
115.10180921052631,102.07247807017544,76.47538377192983,47766.66666666666
115.21863398121859,102.20525769818735,76.66750382179517,47800.0
115.09586074561405,102.03092105263157,76.46891447368421,47833.33333333334
115.26855811403507,102.02864583333331,76.6718475877193,47866.66666666666
115.1735471491228,102.05951206140352,76.49098135964913,47900.0
115.24705175802576,102.2656966586591,76.72949879886437,47933.33333333333
115.11186951754387,102.06748903508772,76.4577028508772,47966.66666666667
115.38905502392343,102.47403762505436,76.94250217485863,48000.0
115.39930404523706,102.4626468029578,76.9950250108743,48033.33333333333
115.35643214441065,102.498504784689,76.94780339277945,48066.66666666667
115.39922248803828,102.51979121357112,77.01356568073075,48100.0
115.24904455121204,102.36356191308144,76.7587355317755,48133.33333333334
115.01604702022965,101.94231820667031,76.21068890103881,48166.66666666666
115.13385718224428,101.91144196305487,76.08285084091536,48200.0
115.14893851668043,101.91571546732835,76.0885028949545,48233.33333333334
115.08042646254783,101.89830508474577,76.20620557681794,48266.66666666666
115.01872607982504,101.91344997266266,76.13504647348276,48300.0
115.40420041180508,102.00186684969117,76.45125600549073,48333.33333333334
115.32183939601921,102.00032944406315,76.27945092656142,48366.66666666666
115.37271105010296,102.00653397391899,76.35632120796156,48400.0
115.27468982630272,101.84463744141165,76.19539564378275,48433.33333333333
115.28656142759094,101.9951956074125,76.32359643102265,48466.66666666667
115.33724090597117,102.05965682910087,76.22701441317777,48500.0
115.31945092656143,102.05386410432396,76.2658064516129,48533.33333333333
115.52740556934108,102.20035842293908,76.39988971601875,48566.66666666667
115.22040253653157,101.92500689274885,76.1189688447753,48600.0
115.2031982354563,101.93997794320371,76.12158808933002,48633.33333333334
115.23755169561623,101.93496002205679,76.1496829335539,48666.66666666666
115.17008547008548,101.96253101736973,76.0897711607389,48700.0
115.23082437275986,101.9435070306038,76.12616487455199,48733.33333333334
115.39994462134848,102.08697217222759,76.17280908209885,48766.66666666666
115.38453267162943,101.8609870416322,76.26821064240418,48800.0
115.40634132892195,101.85776123518059,76.32688172043011,48833.33333333334
115.25811965811964,101.86181417149159,76.20314309346567,48866.66666666666
115.30314309346569,101.84720154397571,76.21974083264406,48900.0
115.28092087124344,101.86870692031981,76.19068100358423,48933.33333333333
115.28420181968569,101.84339674662256,76.26360628618693,48966.66666666667
115.24976564653984,101.87049903501516,76.15707196029777,49000.0
115.23360904328646,101.8850565205404,76.14003308519437,49033.33333333333
115.49181780423643,102.02170843139969,76.2846185795376,49066.66666666667
115.46097189533435,102.0395403571923,76.2191887027551,49100.0
115.35751309622276,101.90697546181416,76.19037772263579,49133.33333333334
115.45831372006091,102.06709123632841,76.18288799667728,49166.66666666666
115.5355115602935,102.09458673681296,76.27296137339056,49200.0
115.5659144399834,102.09237159075177,76.29317458119894,49233.33333333334
115.51053578845357,102.10350269970928,76.19883704831787,49266.66666666666
115.37538377192983,102.15446820175438,76.76370614035088,49300.0
115.27165701681831,101.86010476978218,76.152247036118,49333.33333333334
115.310835401158,101.79859387923905,76.15279845602427,49366.66666666666
115.35728324961781,102.22627757152216,76.72993557545315,49400.0
115.25533498759305,101.78478081058728,76.10631375792666,49433.33333333333
115.40161607337843,102.2204356846473,76.71453920069884,49466.66666666667
115.21779057017544,102.03939144736843,76.50367324561404,49500.0
115.2281499862145,101.74361731458505,76.07344913151364,49533.33333333333
115.16153846153843,101.74080507306314,75.98172043010753,49566.66666666667
115.1673245614035,102.00057565789473,76.4418859649123,49600.0
115.19221491228072,101.97568530701756,76.49454495614036,49633.33333333334
115.3345701232175,101.86650976048729,76.07573030596704,49666.66666666666
115.41716738197424,101.84397064931468,76.05839678803821,49700.0
115.38864737643637,101.86540218745674,76.07869306382389,49733.33333333334
115.55971203101204,101.82871383081822,76.18380174442753,49766.66666666666
115.11957236842106,101.90422149122809,76.36181469298245,49800.0
115.12417763157896,101.88481359649124,76.39610745614036,49833.33333333334
115.10433114035088,101.83925438596492,76.42716557017546,49866.66666666666
115.10307017543859,101.83813048245615,76.36066337719298,49900.0
115.13182565789472,101.81027960526316,76.43993969298245,49933.33333333333
115.12645285087721,101.7891447368421,76.39196820175438,49966.66666666667
115.0609375,101.73029057017544,76.39539473684209,50000.0
115.08148148148148,101.82990196078433,76.54158496732026,50033.33333333333
115.07510893246187,101.8264705882353,76.54384531590414,50066.66666666667
115.07716557017544,101.74915021929823,76.37272478070176,50100.0
115.07631578947368,101.76288377192982,76.3607730263158,50133.33333333334
115.34677419354841,101.6449110122358,75.90030589543937,50166.66666666666
115.12368421052632,101.84421600877194,76.33478618421053,50200.0
115.12831688596492,101.84303728070176,76.33294956140351,50233.33333333334
115.28977116073892,101.65817480011029,76.1428453267163,50266.66666666666
115.2140887786049,101.6530741659774,76.09738075544526,50300.0
115.37508756803363,102.32381311634424,76.94266314598265,50333.33333333334
115.08845942982457,101.89605263157895,76.36946271929824,50366.66666666666
115.14577850877191,101.84561403508772,76.37996162280702,50400.0
115.32512806313166,101.72939221929946,75.99745258202962,50433.33333333333
115.27755780146757,101.72462965526786,76.00299044718261,50466.66666666667
115.32570953897272,101.69461442613873,75.95378651529835,50500.0
115.2788863497018,101.58856808427623,75.74705980714565,50533.33333333333
115.32684480132907,101.69976464073099,75.9080437491347,50566.66666666667
115.32208223729752,101.68032673404406,75.95647237989755,50600.0
115.31812266371315,101.67825003461165,75.91189256541603,50633.33333333334
115.33013983109512,101.67044164474596,75.97225529558354,50666.66666666666
115.3212238681988,101.6841478609996,75.90845908902119,50700.0
115.27430383236836,101.55257788806179,76.07879790460436,50733.33333333334
115.42240066454382,101.74348608611379,75.99817250449951,50766.66666666666
115.43679911394158,101.76655129447596,75.94802713553925,50800.0
115.43729752180536,101.77660251972864,75.9426277170151,50833.33333333334
115.2011028398125,101.67107802591671,75.86492969396195,50866.66666666666
115.19602977667492,101.6676040805073,75.84091535704441,50900.0
115.12230493520815,101.6760959470637,75.85368072787428,50933.33333333333
115.14314860766474,101.66994761510892,75.78902674386545,50966.66666666667
115.32014398449398,101.78787207531497,75.8318704139554,51000.0
115.33733905579399,101.77145230513635,75.87345978125433,51033.33333333333
115.18160635964912,101.86389802631581,76.3139528508772,51066.66666666667
115.34816558216808,101.76757579952928,75.93742212377128,51100.0
115.33758825972588,101.81556140107989,75.94470441644745,51133.33333333334
115.368434168628,101.81558909040564,75.88788591997785,51166.66666666666
115.57023397480272,101.77809774331995,76.08016059808944,51200.0
115.60310120448568,101.77159075176519,76.11372006091652,51233.33333333334
115.65186318131258,101.91732480533928,76.025,51266.66666666666
115.52371590751764,101.80747611795653,75.96732659559741,51300.0
115.4639346531912,101.85490793299185,76.02179149937699,51333.33333333334
115.45800913747749,101.91167105080991,76.05136369929392,51366.66666666666
115.22853598014886,101.80783016266888,75.94210090984285,51400.0
115.23035566583954,101.8123793768955,75.95370829886959,51433.33333333333
115.50549633116434,102.02309289768795,75.97854077253218,51466.66666666667
115.49666343624531,102.00711615672158,75.97591028658452,51500.0
115.58607664736697,102.16129032258064,76.23460159911772,51533.33333333333
115.50433337948222,101.95600166135956,75.99451751349855,51566.66666666667
115.47982832618023,101.93105357884536,75.9850200747612,51600.0
115.50527481655821,101.93169043333796,76.00949743873737,51633.33333333334
115.2763716570168,101.81268265784395,75.87755720981528,51666.66666666666
115.36250344637442,101.81089054314859,75.99707747449683,51700.0
115.21965811965812,101.86848635235731,75.91880341880342,51733.33333333334
115.23788254755995,101.8699751861042,76.0091811414392,51766.66666666666
115.16862420733385,101.8728701406121,75.82172594430659,51800.0
115.1835952577888,101.8778053487731,75.83672456575681,51833.33333333334
115.28398125172319,101.89495450785772,75.94408602150537,51866.66666666666
115.28116901020128,101.89834574028124,75.95770609318997,51900.0
115.3200165425972,101.90465949820788,76.06087675765096,51933.33333333333
115.27766749379651,101.92646815550043,76.04110835401157,51966.66666666667
115.33589743589745,101.9628894403088,76.0601323407775,52000.0
115.53714523051364,102.10175827218607,76.06138723522082,52033.33333333333
115.20650699155476,101.86969403295029,75.81124186626057,52066.66666666667
115.24347224145092,101.91668281877337,75.83524851169874,52100.0
115.23167658867506,101.93027827772394,75.77948220960818,52133.33333333334
115.68096358853659,102.1500207669943,76.16732659559742,52166.66666666666
115.51527066315936,102.14093866814345,75.96392080852831,52200.0
115.52106905969568,102.05911041747952,75.86831837690207,52233.33333333334
115.54794406756196,102.1094005260972,76.09995846601136,52266.66666666666
115.52457427661636,102.11615672158385,76.04291845493563,52300.0
115.36804521643231,101.97711607389029,76.0130135097877,52333.33333333334
115.36826578439482,102.03777226357872,76.04802867383512,52366.66666666666
115.45309001343485,101.94701634572323,75.73701298701299,52400.0
115.34443334443334,101.97582972582971,75.85225885225887,52433.33333333333
115.56437768240343,102.09007301711165,75.97332924586144,52466.66666666667
115.41574303832368,102.06578439481665,76.02533774469258,52500.0
115.584217084314,102.21010660390421,75.99684341686279,52533.33333333333
115.59839401910564,102.20805759379759,76.10912363283954,52566.66666666667
115.61077114772257,102.21636439152708,76.10203516544371,52600.0
115.59681734574438,102.14650799843932,75.94049941474834,52633.33333333334
115.64263070077864,102.11607341490546,76.0960789766407,52666.66666666666
115.5520300333704,102.16101223581758,75.97363737486096,52700.0
115.5836206896552,102.2130700778643,76.01843715239157,52733.33333333334
115.71227482195224,102.3800586510264,76.00555788297724,52766.66666666666
115.58590100111236,102.26201334816463,76.00478309232481,52800.0
115.59452169076752,102.26384872080091,76.0238042269188,52833.33333333334
115.43005238489107,102.2682657843948,76.04281775572099,52866.66666666666
115.52627515853321,102.2449958643507,76.16771436448856,52900.0
115.68450782223452,102.36087498269414,76.18778900733767,52933.33333333333
115.70721306936176,102.32822926761732,76.20168904887166,52966.66666666667
115.58437152391546,102.19632925472747,75.97775305895439,53000.0
115.5686318131257,102.20611790878756,75.9488598442714,53033.33333333333
115.77815947493369,102.31763720150816,75.99231950844855,53066.66666666667
115.54463292547277,102.22511123470524,75.96137374860956,53100.0
115.68345383759736,102.20458843159064,76.09015572858732,53133.33333333334
115.57992213570637,102.19065628476083,76.0349276974416,53166.66666666666
115.61582313681869,102.190489432703,76.03634593993326,53200.0
115.62027252502779,102.18932146829813,76.04858175750834,53233.33333333334
115.58551167964407,102.19071190211346,76.0142380422692,53266.66666666666
115.59763626251393,102.22981090100113,76.0087597330367,53300.0
115.66803267340441,102.40913747750244,76.1072684480133,53333.33333333334
115.51271022883928,102.25944306589469,76.16013234077751,53366.66666666666
115.71745811989477,102.41068807974527,76.18640454104943,53400.0
115.7376436383774,102.40567631178179,76.18751211408002,53433.33333333333
115.69945488568872,102.87020312966128,76.92216526998074,53466.66666666667
115.48136200716844,102.29277639922802,76.0822994210091,53500.0
115.52298520523969,102.50553777996555,76.58640304099325,53533.33333333333
115.43498236114529,102.48193726584078,76.43424399048321,53566.66666666667
115.63752723311545,102.58651960784313,76.85375816993465,53600.0
115.75511560293506,102.3361484147861,76.30923439014259,53633.33333333334
115.60673875480744,102.24836965609501,76.01839362354384,53666.66666666666
115.605568251491,102.25829106515802,76.17039183991974,53700.0
115.55314642439106,102.2432138676774,76.06577113873252,53733.33333333334
115.62242907307285,102.2348809988295,76.10712892257958,53766.66666666666
115.64327517975588,102.25717630009476,76.09821080207347,53800.0
115.64151942478122,102.26355833008192,76.0951173290229,53833.33333333334
115.69796483455627,102.35190364114634,76.25463103973419,53866.66666666666
115.62929530665927,102.38330333656376,76.22569569430985,53900.0
115.7012598643223,102.38601689048872,76.25704001107573,53933.33333333333
115.4637165701682,102.27524124620899,76.21654259718775,53966.66666666667
115.68245881212792,102.39166551294477,76.30762840924824,54000.0
115.68785823065208,102.39828326180258,76.3006230098297,54033.33333333333
115.45020678246485,102.2859387923904,76.26054590570719,54066.66666666667
115.80850062300983,102.42732936452995,76.44114633808667,54100.0
115.489676989677,102.249666999667,76.20063270063271,54133.33333333334
115.49228549228548,102.23273948273949,76.19610944610946,54166.66666666666
115.46833721833721,102.17779442779442,76.1390553890554,54200.0
115.43789543789543,102.18031968031968,76.13192363192363,54233.33333333334
115.45489385166805,102.2232423490488,76.31891370278467,54266.66666666666
115.42842569616764,102.19352081610144,76.29432037496554,54300.0
115.49856630824371,102.17474496829337,76.26818307140887,54333.33333333334
115.70366883566385,102.24242004707183,76.40149522359131,54366.66666666666
115.64194932853384,102.25629239928007,76.33418247265679,54400.0
115.41716616716616,102.03937728937728,76.12673437673438,54433.33333333333
115.38759305210918,102.12230493520815,76.27747449682934,54466.66666666667
115.57303059670495,102.23522082237301,76.31632285753842,54500.0
115.50145368960266,102.2192717707324,76.26429461442612,54533.33333333333
115.47594894376013,102.03369377403713,76.09645504709883,54566.66666666667
115.13573307489962,101.89862937837464,75.92842309289769,54600.0
115.13645299736952,101.86379620656237,75.87697632562647,54633.33333333334
115.10045687387512,101.8111311089575,75.83837740551017,54666.66666666666
115.0611657206147,101.8333656375467,75.74705800913749,54700.0
115.01378174330816,101.90396705559368,75.90242964996568,54733.33333333334
115.15224811201591,102.29858367599238,76.4095245773872,54766.66666666666
115.10882003670515,102.18063802223902,76.10863111303034,54800.0
115.11721364568714,102.18676454712296,76.15157076541078,54833.33333333334
115.02993263798349,102.04932637983488,76.01284767492396,54866.66666666666
115.04468246240398,102.08630855782756,76.15979660283458,54900.0
114.917701274058,102.03529411764706,76.15546218487394,54933.33333333333
114.892428847748,101.6823708206687,75.64133738601824,54966.66666666667
114.873850377488,101.71503088538091,75.8141935483871,55000.0
115.06032856032856,101.75299700299699,75.73257298257299,55033.33333333333
114.99817629179331,101.55667311411993,75.90975407571152,55066.66666666667
114.93489914340978,101.54954407294831,75.81417518651561,55100.0
115.03678792038437,101.70234728894992,76.06204529855869,55133.33333333334
115.02890871654085,101.73405628002745,76.00458476321208,55166.66666666666
115.02344543582704,101.74558682223748,76.0292656142759,55200.0
115.1085144676727,101.725321888412,75.87838848124048,55233.33333333334
114.96271110863388,101.61771919068056,75.69435928877989,55266.66666666666
115.00727384203779,101.61111420768074,75.75759433699348,55300.0
114.98486706426621,101.65208182375565,75.66590491054009,55333.33333333334
115.01053452984785,101.69293796332424,75.70375118443788,55366.66666666666
114.77708402708404,101.54673104673105,75.60059385059384,55400.0
114.79811854811855,101.56043956043956,75.61252636252638,55433.33333333333
115.09723538264313,101.72133660331085,75.74597291120897,55466.66666666667
115.08943202720027,101.7525778942088,75.69377403712168,55500.0
115.253497575386,101.74990245805695,75.86280028983893,55533.33333333333
115.07463352098546,101.68354606766623,75.6507719748063,55566.66666666667
114.85700410700407,101.47352647352648,75.60986235986236,55600.0
114.84620934620935,101.45998445998444,75.64782439782441,55633.33333333334
114.86861011329096,101.6180436584692,75.79204200055264,55666.66666666666
114.79759129759131,101.38930513930514,75.65268065268066,55700.0
114.83854425144749,101.52525503170664,75.86374414116351,55733.33333333334
114.7949827949828,101.36971361971365,75.62026862026862,55766.66666666666
114.73088023088025,101.35103785103784,75.51678876678876,55800.0
114.73964923964924,101.33694083694084,75.5446497946498,55833.33333333334
114.77955377955378,101.3257298257298,75.5742313242313,55866.66666666666
114.97514073908924,101.4640209575832,75.60751909035172,55900.0
115.09182877208627,101.44554372665961,75.6828493395017,55933.33333333333
115.0742712223399,101.4761440276462,75.64965720974305,55966.66666666667
114.98004570536759,101.52909536815115,75.68167883618528,56000.0
114.96533080653252,101.55217100496073,75.6693885513628,56033.33333333333
114.99986155337118,101.64311228021595,75.79493285338502,56066.66666666667
115.05828603073515,101.63261802575107,75.87401356776962,56100.0
115.04829719636587,101.58009586979544,75.62585697564239,56133.33333333334
115.03915612284712,101.58405328577005,75.59807145644056,56166.66666666666
114.99400813778496,101.54495290117607,75.59079761440276,56200.0
115.01460342232876,101.5504988573658,75.56830722925145,56233.33333333334
114.85692085692085,101.38961038961041,75.59898434898435,56266.66666666666
114.85309135309136,101.3884448884449,75.59126984126979,56300.0
114.93176268176269,101.33313908313907,75.61396936396936,56333.33333333334
114.89557664557665,101.36702186702186,75.53518703518705,56366.66666666666
114.9535187035187,101.31371406371406,75.5684593184593,56400.0
115.14341452538878,101.4532634747227,75.60983222785798,56433.33333333332
115.12008806643999,101.45822417925423,75.61716180814894,56466.66666666668
115.016872016872,101.28940503940504,75.747224997225,56500.0
115.13059472716124,101.4126024190402,75.64561618638872,56533.33333333332
115.13134719357895,101.44440109246977,75.66178027980605,56566.66666666668
114.91766566766569,101.3112998112998,75.61835386835386,56600.0
115.0339789520824,101.30732198835646,75.48365427675772,56633.33333333334
114.94634684312105,101.41050454921421,75.78753791011856,56666.66666666666
114.96093189964157,101.43796526054592,75.75960849186656,56700.0
115.06355114419632,101.42236007719879,75.81781086297215,56733.33333333334
114.98985387372484,101.48668320926386,75.76492969396196,56766.66666666666
114.96854149434796,101.47038875103392,75.82031982354563,56800.0
115.17912224837325,101.61351239097328,75.82140384881626,56833.33333333334
115.12568184964695,101.59244081406618,75.75187595182057,56866.66666666666
115.19504361068807,101.51873182887995,75.88342793852969,56900.0
115.1756887719784,101.5165720614703,75.80778070053994,56933.33333333332
