Time[ms],HR[bpm]
833,81.81818
867,81.81818
900,81.81818
933,81.81818
967,81.81818
1000,81.81818
1033,81.81818
1067,81.0
1100,81.0
1133,81.0
1167,81.0
1200,81.0
1233,80.0
1267,80.0
1300,80.0
1333,80.0
1367,80.0
1400,80.0
1433,80.0
1467,80.0
1500,80.0
1533,80.0
1567,80.0
1600,80.0
1633,80.0
1667,80.0
1700,80.0
1733,80.0
1767,80.0
1800,80.0
1833,80.0
1867,79.41176999999998
1900,77.83784
1933,77.83784
1967,77.83784
2000,77.83784
2033,77.83784
2067,77.83784
2100,77.83784
2133,77.83784
2167,77.83784
2200,77.83784
2233,77.83784
2267,77.83784
2300,77.83784
2333,77.83784
2367,77.83784
2400,77.83784
2433,77.83784
2467,77.83784
2500,77.83784
2533,76.36364
2567,76.36364
2600,76.36364
2633,76.36364
2667,76.19048000000002
2700,76.19048000000002
2733,76.19048000000002
2767,76.19048000000002
2800,76.19048000000002
2833,76.19048000000002
2867,76.19048000000002
2900,76.19048000000002
2933,76.19048000000002
2967,76.19048000000002
3000,76.19048000000002
3033,76.19048000000002
3067,76.19048000000002
3100,76.19048000000002
3133,76.19048000000002
3167,76.19048000000002
3200,75.0
3233,75.0
3267,75.0
3300,75.0
3333,75.0
3367,75.0
3400,75.0
3433,75.39267
3467,75.39267
3500,75.39267
3533,75.39267
3567,75.39267
3600,75.39267
3633,75.39267
3667,75.39267
3700,75.0
3733,75.0
3767,75.0
3800,75.0
3833,75.0
3867,75.0
3900,74.55621
3933,74.55621
3967,74.55621
4000,74.55621
4033,74.55621
4067,74.55621
4100,74.55621
4133,74.55621
4167,74.55621
4200,74.55621
4233,74.55621
4267,74.55621
4300,74.22681
4333,74.22681
4367,74.22681
4400,74.22681
4433,74.22681
4467,74.22681
4500,74.22681
4533,74.22681
4567,74.22681
4600,74.22681
4633,74.22681
4667,74.11765
4700,73.68421
4733,73.68421
4767,73.68421
4800,73.68421
4833,73.68421
4867,73.68421
4900,73.68421
4933,73.68421
4967,73.68421
5000,73.68421
5033,73.68421
5067,73.68421
5100,73.68421
5133,73.68421
5167,73.46939
5200,73.46939
5233,73.46939
5267,73.46939
5300,73.46939
5333,73.46939
5633,74.11765
5667,74.11765
5700,74.11765
5733,74.11765
5767,74.11765
5800,74.11765
5833,74.11765
5867,74.11765
5900,74.11765
5933,74.11765
5967,74.11765
6000,73.84615
6033,73.84615
6067,73.84615
6100,73.84615
6133,73.84615
6167,73.84615
6200,73.84615
6233,73.84615
6267,73.84615
6300,73.84615
6333,73.25581
6367,73.25581
6400,73.25581
6433,73.25581
6467,73.25581
6500,73.25581
6533,73.25581
6567,73.25581
6600,73.25581
6633,73.25581
6667,73.25581
6700,73.25581
6733,73.25581
6767,73.25581
6800,73.25581
6833,73.25581
6867,73.25581
6900,73.25581
6933,73.25581
6967,73.25581
7000,72.83237
7033,70.93596
7067,70.93596
7100,70.39106
7133,70.39106
7167,70.39106
7200,70.39106
7233,70.39106
7267,70.39106
7300,70.39106
7333,70.39106
7367,70.39106
7400,70.39106
7433,70.39106
7467,70.39106
7500,70.39106
7533,70.39106
7567,70.39106
7600,70.39106
7633,70.39106
7667,70.39106
7700,70.39106
7733,70.39106
7767,70.39106
7800,70.39106
7833,70.93596
7867,70.93596
7900,70.39106
7933,70.39106
7967,70.39106
8000,70.39106
8033,70.39106
8067,70.39106
8100,70.39106
8133,70.39106
8167,70.39106
8200,70.39106
8233,70.39106
8267,70.39106
8300,70.39106
8333,70.39106
8367,70.39106
8400,70.39106
8433,70.39106
8467,70.39106
8500,70.39106
8533,70.39106
8567,70.39106
8600,71.28713
8633,71.28713
8667,71.28713
8700,70.78650999999998
8733,70.78650999999998
8767,70.78650999999998
8800,70.78650999999998
8833,70.78650999999998
8867,70.78650999999998
8900,70.78650999999998
8933,70.78650999999998
8967,70.78650999999998
9000,70.78650999999998
9033,70.78650999999998
9067,70.78650999999998
9100,70.78650999999998
9133,70.78650999999998
9167,70.78650999999998
9200,70.78650999999998
9233,71.18644
9267,72.72726999999998
9300,72.72726999999998
9333,72.72726999999998
9367,72.72726999999998
9400,72.72726999999998
9433,72.72726999999998
9467,72.72726999999998
9500,72.4138
9533,72.4138
9567,72.4138
9600,72.4138
9633,72.4138
9667,72.4138
9700,72.4138
9733,72.4138
9767,72.4138
9800,72.4138
9833,72.4138
9867,72.4138
9900,72.4138
9933,72.4138
9967,72.4138
10000,72.4138
10033,72.4138
10067,74.6114
10100,74.6114
10133,74.6114
10167,74.6114
10200,74.6114
10233,74.6114
10267,74.6114
10300,75.4491
10333,75.4491
10367,75.4491
10400,75.4491
10433,75.4491
10467,75.4491
10500,77.83784
10533,77.83784
10567,77.83784
10600,77.83784
10633,77.83784
10667,77.83784
10700,77.83784
10733,77.83784
10767,77.83784
10800,77.83784
10833,77.83784
10867,77.83784
10900,77.83784
10933,77.83784
10967,77.83784
11000,77.83784
11033,77.83784
11067,77.83784
11100,77.83784
11133,77.83784
11167,78.75
11200,78.75
11233,78.75
11267,78.75
11300,78.75
11333,78.75
11367,78.75
11400,78.75
11433,78.75
11467,76.19048000000002
11500,76.19048000000002
11533,76.19048000000002
11567,76.19048000000002
11600,76.19048000000002
11633,76.19048000000002
11667,76.19048000000002
11700,76.19048000000002
11733,76.19048000000002
11767,76.19048000000002
11800,76.19048000000002
11833,76.19048000000002
11867,76.19048000000002
11900,76.19048000000002
11933,76.19048000000002
11967,76.19048000000002
12000,77.30060999999998
12033,77.30060999999998
12067,77.30060999999998
12100,77.30060999999998
12133,77.30060999999998
12167,77.30060999999998
12200,77.30060999999998
12233,77.30060999999998
12267,77.30060999999998
12300,77.30060999999998
12333,77.30060999999998
12367,77.30060999999998
12400,75.39267
12433,75.39267
12467,75.39267
12500,75.39267
12533,75.39267
12567,75.39267
12600,75.39267
12633,75.39267
12667,75.39267
12700,75.39267
12733,75.39267
12767,75.39267
12800,75.39267
12833,75.39267
12867,78.26087
12900,78.26087
12933,78.26087
12967,78.26087
13000,78.26087
13033,78.26087
13067,78.26087
13100,78.26087
13133,78.26087
13167,78.26087
13200,78.26087
13233,78.26087
13267,77.00535
13300,77.00535
13333,77.00535
13367,77.00535
13400,77.00535
13433,77.00535
13467,77.00535
13500,77.00535
13533,77.00535
13567,77.00535
13600,77.00535
13633,77.00535
13667,77.00535
13700,77.00535
13733,77.00535
13767,77.00535
13800,77.00535
13833,77.00535
14133,76.19048000000002
14167,76.19048000000002
14200,76.19048000000002
14233,76.19048000000002
14267,76.19048000000002
14300,76.19048000000002
14333,76.19048000000002
14367,76.19048000000002
14400,76.19048000000002
14433,76.19048000000002
14467,76.19048000000002
14500,76.19048000000002
14533,76.19048000000002
14567,76.19048000000002
14600,76.19048000000002
14633,76.19048000000002
14667,75.4491
14700,75.4491
14733,75.4491
14767,75.4491
14800,75.4491
14833,75.4491
14867,75.4491
14900,75.4491
15033,75.4491
15067,75.4491
15100,75.4491
15133,75.4491
15167,75.4491
15200,75.4491
15233,75.4491
15267,75.4491
15300,75.4491
15333,72.0
15367,72.0
15400,70.39106
15433,70.39106
15467,70.39106
15500,70.39106
15533,70.39106
15567,70.39106
15600,70.39106
15633,70.39106
15667,70.39106
15700,70.39106
15733,70.39106
15767,70.39106
15800,70.39106
15833,70.39106
15867,70.39106
15900,70.39106
15933,70.39106
15967,70.39106
16000,70.78650999999998
16033,70.93596
16067,70.93596
16100,68.47825999999999
16133,68.47825999999999
16167,68.47825999999999
16200,68.47825999999999
16233,68.47825999999999
16267,68.47825999999999
16300,68.47825999999999
16333,68.47825999999999
16367,68.47825999999999
16400,68.47825999999999
16433,68.47825999999999
16467,68.47825999999999
16500,68.47825999999999
16533,68.47825999999999
16567,68.47825999999999
16600,68.47825999999999
16633,68.47825999999999
16667,68.47825999999999
16700,68.47825999999999
16733,65.06024000000001
16767,65.06024000000001
16800,65.06024000000001
16833,65.06024000000001
16867,65.06024000000001
16900,65.06024000000001
16933,65.06024000000001
16967,65.06024000000001
17000,65.06024000000001
17033,65.06024000000001
17067,63.95939
17100,63.95939
17133,63.95939
17167,63.95939
17200,63.95939
17233,63.95939
17267,63.95939
17300,63.95939
17333,64.28571
17367,64.28571
17400,64.28571
17433,64.28571
17467,64.28571
17500,64.28571
17533,64.28571
17567,64.28571
17600,64.28571
17633,64.28571
17667,64.28571
17700,64.28571
17733,64.28571
17767,64.28571
17800,64.28571
17833,64.28571
17867,64.28571
17900,64.28571
17933,64.28571
17967,64.61539
18000,64.61539
18033,64.61539
18067,64.61539
18100,64.61539
18133,64.61539
18167,64.61539
18200,64.61539
18233,64.61539
18267,64.61539
18300,64.67066
18333,64.67066
18367,64.67066
18400,64.67066
18433,64.67066
18467,64.28571
18500,64.28571
18533,64.28571
18567,64.28571
18600,64.28571
18633,64.28571
18667,64.28571
18700,64.28571
18733,64.28571
18767,64.28571
18800,64.28571
18833,64.28571
18867,64.28571
18900,64.28571
18933,64.28571
18967,64.28571
19000,64.28571
19033,64.28571
19067,63.0
19100,63.0
19133,63.0
19167,63.0
19200,63.0
19233,62.06896999999999
19267,62.06896999999999
19300,62.06896999999999
19333,62.06896999999999
19367,62.06896999999999
19400,62.06896999999999
19433,62.06896999999999
19467,62.06896999999999
19500,62.06896999999999
19533,62.06896999999999
19567,62.06896999999999
19600,62.06896999999999
19633,62.06896999999999
19667,62.06896999999999
19700,62.06896999999999
19733,62.06896999999999
19767,62.06896999999999
19800,62.06896999999999
19833,63.95939
19867,63.95939
19900,63.63636
19933,63.63636
19967,63.63636
20000,63.63636
20033,63.63636
20067,63.63636
20100,63.15789
20133,63.15789
20167,63.15789
20200,63.15789
20233,63.15789
20267,63.15789
20300,63.15789
20333,63.15789
20367,63.15789
20400,63.15789
20433,63.15789
20467,63.15789
20500,63.52941
20533,63.52941
20567,63.52941
20600,63.52941
20633,63.52941
20667,63.52941
20700,63.52941
20733,63.52941
20767,63.52941
20800,63.52941
20833,63.52941
20867,63.52941
20900,62.37624
20933,62.37624
20967,62.37624
21000,63.15789
21033,63.15789
21067,63.15789
21100,63.15789
21133,63.15789
21167,63.15789
21200,63.15789
21233,63.15789
21267,63.15789
21300,63.15789
21333,63.15789
21367,63.15789
21400,63.15789
21433,63.15789
21467,63.15789
21500,63.15789
21533,63.15789
21567,63.15789
21600,63.15789
21633,63.15789
21667,63.15789
21700,63.15789
21733,63.15789
21767,63.15789
21800,63.15789
21833,63.15789
21867,63.15789
21900,63.15789
21933,63.15789
21967,63.15789
22000,63.15789
22033,61.64384
22067,61.64384
22100,59.34066
22133,59.34066
22167,59.34066
22200,59.34066
22233,59.34066
22267,59.34066
22300,59.34066
22333,59.34066
22367,59.34066
22400,59.34066
22433,59.34066
22467,59.34066
22500,59.34066
22533,59.34066
22567,59.34066
22600,59.34066
22633,59.34066
22667,59.34066
22700,59.34066
22733,59.34066
22767,59.34066
22800,59.34066
22833,59.34066
22867,59.21053000000001
22900,59.21053000000001
22933,59.21053000000001
22967,59.21053000000001
23000,59.21053000000001
23033,59.21053000000001
23067,59.66851
23100,59.66851
23133,59.66851
23167,59.66851
23200,59.66851
23233,59.66851
23267,59.66851
23300,59.66851
23333,59.66851
23367,59.66851
23400,59.66851
23533,59.66851
23567,59.66851
23600,59.66851
23633,59.66851
23667,59.66851
23700,59.66851
23733,59.66851
23767,59.66851
23800,60.0
23833,60.0
23867,59.60265
23900,59.60265
23933,59.60265
23967,59.60265
24000,60.0
24033,60.0
24067,60.0
24100,60.0
24133,60.0
24167,60.0
24200,60.0
24233,60.0
24267,60.33519
24300,60.33519
24333,60.33519
24367,60.33519
24400,60.33519
24433,60.33519
24467,60.33519
24500,60.33519
24533,60.33519
24567,60.33519
24600,60.33519
24633,60.33519
24667,60.0
24700,60.0
24733,60.0
24767,60.0
24800,60.0
24833,60.81081
24867,60.81081
24900,60.81081
24933,60.81081
24967,60.81081
25000,60.81081
25033,62.42775
25067,62.42775
25100,62.42775
25133,62.42775
25167,62.42775
25200,62.42775
25233,62.42775
25267,62.42775
25300,62.42775
25333,62.42775
25367,62.42775
25400,62.42775
25433,62.42775
25467,62.42775
25500,62.42775
25533,62.42775
25567,62.7907
25600,62.7907
25633,62.7907
25667,62.7907
25700,62.7907
25733,62.7907
25767,62.7907
25800,62.7907
25833,62.7907
25867,62.7907
25900,59.34066
25933,60.40268
25967,58.69565
26000,58.69565
26033,58.69565
26067,58.69565
26100,58.69565
26133,58.69565
26167,58.69565
26200,58.69565
26233,58.69565
26267,58.69565
26300,58.69565
26333,58.69565
26367,58.69565
26400,58.69565
26433,58.69565
26467,58.69565
26500,58.69565
26533,58.69565
26567,58.69565
26600,58.69565
26633,58.69565
26667,59.21053000000001
26700,59.21053000000001
26733,59.21053000000001
26767,59.21053000000001
26800,59.21053000000001
26833,59.21053000000001
26867,59.21053000000001
26900,59.21053000000001
26933,59.21053000000001
26967,59.21053000000001
27000,59.01639
27033,59.01639
27067,59.01639
27100,59.01639
27133,59.01639
27167,59.01639
27200,59.01639
27233,59.01639
27267,59.01639
27300,59.01639
27333,59.01639
27367,59.01639
27400,59.01639
27433,59.01639
27467,59.01639
27500,59.01639
27533,59.01639
27567,59.01639
27600,59.01639
27633,59.01639
27667,59.01639
27700,59.01639
27733,61.22449
27767,61.22449
27800,61.22449
27833,62.7907
27867,62.7907
27900,62.7907
27933,62.7907
27967,62.7907
28000,62.7907
28033,62.7907
28067,62.7907
28100,62.7907
28133,62.7907
28167,62.7907
28200,62.7907
28233,62.7907
28267,62.7907
28300,62.7907
28333,62.7907
28367,62.7907
28400,62.7907
28433,62.7907
28467,62.7907
28500,62.7907
28533,62.7907
28567,62.7907
28600,62.7907
28633,62.7907
28667,62.7907
28700,63.63636
28733,63.63636
28767,63.63636
28800,63.63636
28833,63.63636
28867,63.63636
28900,63.63636
28933,63.52941
28967,63.52941
29000,63.52941
29033,63.52941
29067,63.52941
29100,63.52941
29133,63.52941
29167,63.52941
29200,63.52941
29233,63.52941
29267,63.52941
29300,63.52941
29333,63.52941
29367,66.31579
29400,66.31579
29433,66.31579
29467,66.31579
29500,66.31579
29533,66.31579
29567,66.31579
29600,66.31579
29633,66.31579
29667,66.31579
29700,66.31579
29733,66.31579
29767,66.31579
29800,66.31579
29833,66.31579
29867,66.66666
29900,67.08074
29933,67.08074
29967,67.08074
30000,67.08074
30033,67.08074
30067,67.08074
30100,67.08074
30133,67.08074
30167,67.08074
30200,67.08074
30233,67.08074
30267,67.08074
30300,67.08074
30333,67.08074
30367,67.08074
30400,67.08074
30433,67.08074
30467,64.94846
30500,64.94846
30533,67.08074
30567,67.08074
30600,67.08074
30633,63.31658
30667,63.31658
30700,63.31658
30733,63.31658
30767,63.31658
30800,63.31658
30833,62.06896999999999
30867,62.06896999999999
30900,61.71429000000001
30933,61.71429000000001
30967,61.71429000000001
31000,61.36364
31033,61.36364
31067,61.36364
31100,61.36364
31133,61.36364
31167,61.36364
31200,61.36364
31233,61.36364
31267,61.36364
31300,61.36364
31333,61.36364
31367,61.36364
31400,61.36364
31433,61.36364
31467,61.36364
31500,61.36364
31533,61.36364
31567,61.36364
31600,61.36364
31633,63.82979
31667,63.82979
31700,62.7907
31733,62.7907
31767,62.7907
31800,62.7907
31833,62.7907
31867,62.7907
31900,62.7907
31933,62.7907
31967,63.15789
32000,63.15789
32033,63.15789
32067,63.15789
32100,63.15789
32133,63.15789
32167,63.15789
32200,63.15789
32233,63.15789
32267,63.15789
32300,63.15789
32333,63.15789
32367,63.15789
32400,63.15789
32433,63.15789
32467,63.15789
32500,63.15789
32533,63.15789
32567,63.63636
32600,63.63636
32633,63.63636
32667,63.63636
32700,63.63636
32733,63.63636
32767,63.63636
32800,64.67066
32833,64.67066
32867,64.67066
32900,64.67066
32933,64.67066
32967,64.67066
33000,64.67066
33033,64.67066
33067,64.67066
33100,64.67066
33133,64.67066
33167,64.67066
33200,64.67066
33233,64.67066
33267,64.67066
33300,64.67066
33333,64.67066
33367,64.67066
33400,64.67066
33433,64.67066
33467,64.67066
33500,64.67066
33533,64.28571
33567,64.28571
33600,64.28571
33633,64.28571
33667,64.28571
33700,64.28571
33733,64.28571
33767,64.28571
33800,64.28571
33833,63.15789
33867,62.7907
33900,62.7907
33933,62.7907
33967,62.7907
34000,62.7907
34033,62.7907
34067,62.7907
34100,62.7907
34133,62.7907
34167,62.7907
34200,62.7907
34233,62.7907
34267,62.7907
34300,62.7907
34333,62.7907
34367,62.7907
34400,62.7907
34433,62.7907
34467,62.7907
34500,62.7907
34533,62.7907
34567,62.7907
34600,62.7907
34633,62.7907
34667,61.64384
34700,61.64384
34733,61.64384
34767,61.64384
34800,61.64384
34833,61.64384
34867,61.64384
34900,61.64384
34933,61.64384
34967,57.44681
35000,57.44681
35033,52.94118
35067,52.63158000000001
35100,52.63158000000001
35133,52.32558
35167,52.32558
35200,51.72414000000001
35233,51.72414000000001
35267,51.72414000000001
35300,51.72414000000001
35333,51.42857
35367,51.42857
35400,51.42857
35433,51.42857
35467,51.42857
35500,51.42857
35533,51.42857
35567,51.42857
35600,51.42857
35633,51.42857
35667,51.42857
35700,51.42857
35733,51.42857
35767,51.42857
35800,51.42857
35833,51.42857
35867,51.42857
35900,51.42857
35933,51.42857
35967,51.42857
36000,51.42857
36033,51.42857
36067,51.42857
36100,51.42857
36133,51.42857
36167,51.42857
36200,52.94118
36233,52.94118
36267,52.94118
36300,52.94118
36333,52.94118
36367,52.94118
36400,52.94118
36433,52.94118
36467,52.94118
36500,52.94118
36533,52.94118
36567,52.94118
36600,52.94118
36633,52.94118
36667,52.94118
36700,52.94118
36733,52.94118
36767,52.94118
36800,52.94118
36833,52.94118
36867,52.94118
36900,52.94118
36933,52.94118
36967,52.94118
37000,52.94118
37033,52.94118
37067,52.94118
37100,52.94118
37133,52.94118
37167,52.94118
37200,52.94118
37233,52.94118
37267,52.94118
37300,52.94118
37333,52.94118
37367,52.94118
37400,53.46535
37433,53.46535
37467,53.46535
37500,52.32558
37533,52.32558
37567,52.32558
37600,52.32558
37633,52.32558
37667,52.32558
37700,52.32558
37733,52.32558
37767,52.32558
37800,52.32558
37833,52.32558
37867,52.32558
37900,52.32558
37933,52.32558
37967,52.32558
38000,52.32558
38033,52.32558
38067,52.32558
38100,52.32558
38133,52.32558
38167,52.32558
38200,52.32558
38233,52.32558
38267,52.32558
38300,52.32558
38333,52.32558
38367,52.32558
38400,53.46535
38433,53.20197
38467,53.20197
38500,51.13636
38533,51.13636
38567,51.13636
38600,51.13636
38633,51.13636
38667,51.13636
38700,51.13636
38733,51.13636
38767,51.13636
38800,51.13636
38833,51.13636
38867,51.13636
38900,51.13636
38933,51.13636
38967,51.13636
39000,51.13636
39033,51.13636
39067,51.13636
39100,51.13636
39133,51.13636
39167,51.13636
39200,51.13636
39233,51.13636
39267,51.13636
39300,51.13636
39333,51.13636
39367,49.31507
39400,49.31507
39433,51.13636
39467,51.13636
39500,51.13636
39533,51.13636
39567,51.13636
39600,51.13636
39633,51.13636
39667,51.13636
39700,51.13636
39733,51.13636
39767,51.13636
39800,51.13636
39833,51.13636
39867,51.13636
39900,51.13636
39933,51.13636
40500,58.44156
40533,58.44156
40567,58.44156
40600,58.44156
40633,58.44156
40667,58.44156
40700,58.44156
40733,58.44156
40767,58.44156
40800,58.44156
40833,58.44156
40867,58.44156
40900,58.44156
40933,58.44156
40967,58.44156
41000,58.44156
41033,58.44156
41067,58.44156
41100,58.44156
41133,58.44156
41167,58.44156
41200,58.44156
41233,58.44156
41267,58.44156
41300,58.44156
41333,58.37838000000001
41367,58.37838000000001
41400,58.37838000000001
41433,58.37838000000001
41467,58.37838000000001
41500,58.37838000000001
41533,58.37838000000001
41567,58.37838000000001
41600,58.37838000000001
41633,58.37838000000001
41667,58.37838000000001
41700,58.37838000000001
41733,58.37838000000001
41767,58.37838000000001
41800,58.37838000000001
41833,58.37838000000001
41867,58.37838000000001
41900,58.37838000000001
41933,58.37838000000001
41967,58.37838000000001
42000,60.0
42033,60.0
42067,60.0
42100,60.0
42133,60.0
42167,60.0
42200,60.0
42233,60.0
42267,60.0
42300,60.0
42500,59.34066
42533,59.34066
42567,59.34066
42600,59.34066
42633,59.34066
42667,59.34066
42700,59.34066
42733,59.34066
42767,59.34066
42800,59.34066
42833,59.34066
42867,59.34066
42900,59.34066
42933,59.34066
42967,59.34066
43000,59.34066
43033,59.34066
43067,59.34066
43100,59.34066
43133,59.34066
43167,60.0
43200,60.0
43233,60.0
43267,60.0
43300,60.0
43333,60.0
43367,60.0
43400,60.0
43433,59.66851
43467,59.66851
43500,59.66851
43533,59.66851
43567,59.66851
43600,59.66851
43633,59.66851
43667,59.66851
43700,59.66851
43733,59.66851
43767,59.66851
43800,59.66851
43833,59.66851
43867,59.66851
43900,59.66851
43933,59.66851
43967,59.66851
44000,59.66851
44033,59.66851
44067,59.66851
44100,59.66851
44133,59.66851
44167,59.66851
44200,59.66851
44233,60.0
44267,60.0
44300,60.0
44333,60.0
44367,60.0
44400,60.0
44433,60.0
44467,60.0
44500,59.34066
44533,59.34066
44567,59.34066
44600,59.01639
44633,59.01639
44667,59.01639
44700,59.01639
44733,59.01639
44767,59.01639
44800,59.01639
44833,59.01639
44867,59.01639
44900,59.01639
44933,59.01639
44967,59.01639
45000,59.01639
45033,59.01639
45067,59.01639
45100,59.01639
45133,59.01639
45167,59.01639
45200,59.01639
45233,59.01639
45267,58.44156
45300,58.44156
45333,58.44156
45367,58.44156
45400,58.44156
45433,58.44156
45467,58.82353000000001
45500,59.01639
45533,59.01639
45567,59.01639
45600,59.01639
45633,59.01639
45667,59.01639
45700,59.01639
45733,59.01639
45767,59.01639
45800,59.01639
45833,59.01639
45867,59.01639
45900,59.01639
45933,59.01639
45967,59.01639
46000,59.01639
46033,59.01639
46067,59.01639
46100,59.01639
46133,59.01639
46167,59.01639
46200,59.01639
46233,58.06452
46267,58.06452
46300,60.33519
46333,60.33519
46367,60.33519
46400,60.33519
46433,60.33519
46467,60.33519
46500,60.33519
46533,60.33519
46567,60.33519
46600,60.33519
46633,60.33519
46667,60.33519
46700,60.33519
46733,60.33519
46767,60.33519
46800,60.33519
46833,60.33519
46867,60.33519
46900,60.33519
46933,60.33519
46967,60.33519
47000,60.33519
47033,60.33519
47067,60.33519
47100,60.33519
47133,60.33519
47167,60.40268
47200,61.36364
47233,61.36364
47267,61.36364
47300,61.36364
47333,61.36364
47367,61.36364
47400,61.36364
47433,61.36364
47467,61.36364
47500,61.36364
47533,61.36364
47567,61.36364
47600,61.36364
47633,61.36364
47667,61.36364
47700,61.36364
47733,61.36364
47767,61.36364
47800,61.36364
47833,61.36364
47867,61.36364
47900,61.36364
47933,61.36364
47967,61.36364
48000,61.36364
48033,61.36364
48067,61.36364
48100,61.36364
48133,61.36364
48167,62.5
48200,62.5
48233,62.5
48267,62.5
48300,62.5
48333,62.5
48367,62.5
48400,62.5
48433,62.5
49000,59.34066
49033,59.34066
49067,59.34066
49100,59.34066
49133,59.34066
49167,59.34066
49200,59.34066
49233,59.60265
49267,59.60265
49300,59.60265
49333,59.60265
49367,59.60265
49400,59.60265
49433,59.60265
49467,59.60265
49500,59.60265
49533,59.01639
49567,58.69565
49600,58.69565
49633,58.69565
49667,58.69565
49700,58.69565
49733,58.69565
49767,58.69565
49800,58.69565
49833,58.69565
49867,58.69565
49900,58.69565
49933,58.69565
49967,58.69565
50000,58.69565
50033,58.69565
50067,58.69565
50100,58.69565
50133,58.69565
50167,58.69565
50200,58.69565
50233,58.69565
50267,59.21053000000001
50300,59.21053000000001
50333,59.21053000000001
50367,59.21053000000001
50400,59.21053000000001
50433,59.21053000000001
50467,59.21053000000001
50500,59.21053000000001
50533,59.21053000000001
50567,59.21053000000001
50600,59.21053000000001
50633,59.21053000000001
50667,59.21053000000001
50700,58.06452
50733,58.06452
50767,58.06452
50800,58.06452
51000,58.06452
51033,58.06452
51067,58.06452
51100,58.06452
51133,58.06452
51167,58.06452
51200,58.06452
51233,58.06452
51267,58.06452
51300,58.06452
51333,57.69231
51367,57.69231
51400,57.69231
51433,57.69231
51467,57.69231
51500,57.69231
51533,57.69231
51567,57.69231
51600,57.69231
51633,57.69231
51667,57.69231
51700,57.69231
51733,57.69231
51767,57.69231
51800,57.69231
51833,57.69231
51867,57.69231
51900,57.69231
51933,57.69231
51967,57.69231
52000,57.69231
52033,57.69231
52067,57.69231
52100,57.69231
52133,57.69231
52167,57.69231
52200,57.69231
52233,57.69231
52267,57.69231
52300,57.69231
52333,54.13534
52367,54.13534
52400,54.13534
52433,54.13534
52467,54.13534
52500,54.13534
52533,54.13534
52567,54.13534
52600,54.13534
52633,54.13534
52667,54.13534
52700,54.13534
52733,54.13534
52767,54.13534
52800,54.13534
52833,54.13534
52867,54.13534
52900,54.13534
52933,54.13534
52967,54.13534
53000,52.02312
53033,52.02312
53067,52.02312
53100,50.84746
53133,50.84746
53167,50.84746
53200,50.84746
53233,50.84746
53267,50.84746
53300,50.84746
53333,50.5618
53367,50.5618
53400,50.5618
53433,50.5618
53467,50.5618
53500,50.5618
53533,50.5618
53567,50.5618
53600,50.5618
53633,50.5618
53667,50.5618
53700,50.5618
53733,50.5618
53767,50.5618
53800,50.5618
53833,50.5618
53867,50.5618
53900,50.5618
53933,50.5618
53967,50.5618
54000,50.5618
54033,51.42857
54067,51.42857
54100,51.42857
54133,51.42857
54167,51.42857
54200,51.42857
54233,51.42857
54267,51.72414000000001
54300,51.72414000000001
54333,51.72414000000001
54367,51.72414000000001
54400,51.72414000000001
54433,51.72414000000001
54467,51.72414000000001
54500,51.72414000000001
54533,51.72414000000001
54567,51.72414000000001
54600,51.72414000000001
54633,51.72414000000001
54667,51.72414000000001
54700,51.72414000000001
54733,51.72414000000001
54767,51.72414000000001
54800,51.72414000000001
54833,51.72414000000001
54867,51.72414000000001
54900,51.72414000000001
54933,51.72414000000001
54967,51.72414000000001
55000,51.72414000000001
55033,51.72414000000001
55067,51.72414000000001
55100,51.72414000000001
55133,51.72414000000001
55167,51.72414000000001
55200,51.72414000000001
55233,51.72414000000001
55267,51.72414000000001
55300,51.06383
55333,52.02312
55367,52.02312
55400,52.02312
55433,52.02312
55467,52.02312
55500,51.72414000000001
55533,51.72414000000001
55567,51.72414000000001
55600,51.72414000000001
55633,51.72414000000001
55667,51.72414000000001
55700,51.72414000000001
55733,51.72414000000001
55767,51.72414000000001
55800,51.72414000000001
55833,51.72414000000001
55867,51.72414000000001
55900,51.72414000000001
55933,52.02312
55967,52.02312
56000,52.02312
56033,52.02312
56067,52.02312
56100,52.02312
56133,52.02312
56167,52.02312
56200,52.02312
56233,52.02312
56267,52.02312
56300,53.46535
56333,53.46535
56367,53.46535
56400,53.57143000000001
56433,53.57143000000001
56467,53.57143000000001
56500,53.25444
56533,53.25444
56567,53.25444
56600,53.25444
56633,53.25444
56667,53.25444
56700,53.25444
56733,53.25444
56767,53.25444
56800,53.25444
56833,53.25444
56867,53.25444
56900,53.25444
56933,53.25444
56967,53.25444
57000,53.25444
57033,53.25444
57067,53.25444
57100,53.25444
57133,53.25444
57167,53.25444
57200,53.25444
57233,53.25444
57267,53.25444
57300,53.25444
57333,53.25444
57367,53.25444
57400,53.25444
57433,53.46535
57467,53.46535
57500,53.46535
57533,55.38462
57567,55.38462
57600,55.38462
57633,55.38462
57667,55.38462
57700,55.38462
57733,55.38462
57767,55.38462
57800,55.38462
57833,55.38462
57867,55.38462
57900,55.38462
57933,55.38462
57967,55.38462
58000,55.38462
58033,55.38462
58067,55.38462
58100,55.38462
58133,55.38462
58167,55.38462
58200,55.38462
58233,55.38462
58267,55.38462
58300,55.38462
58333,55.38462
58367,55.38462
58400,55.38462
58433,55.38462
58467,55.38462
58500,55.38462
58533,55.21473
58567,55.21473
58600,55.21473
58633,55.21473
58667,55.21473
58700,55.21473
58733,55.21473
58767,55.21473
58800,55.21473
58833,55.21473
58867,55.21473
58900,55.21473
58933,55.21473
58967,55.21473
59000,55.21473
59033,55.21473
59067,55.21473
59100,55.21473
59133,55.21473
59167,55.55556
59200,55.55556
59233,55.55556
59267,55.55556
59500,55.55556
59533,55.55556
59567,55.55556
59600,55.55556
59633,55.55556
59667,55.55556
59700,55.55556
59733,55.55556
59767,55.55556
59800,55.21473
59833,55.21473
59867,55.21473
59900,55.21473
59933,55.55556
59967,56.25
60000,56.25
60033,56.25
60067,56.25
60100,56.25
60133,56.25
60167,56.25
60200,56.25
60233,56.25
60267,56.25
60300,56.25
60333,56.25
60367,56.25
60400,56.25
60433,48.64865
60467,48.64865
60500,48.64865
60533,48.64865
60567,48.64865
60600,48.64865
60633,48.64865
60667,48.64865
60700,48.64865
60733,48.64865
60767,48.64865
60800,48.64865
60833,48.64865
60867,48.64865
60900,48.64865
60933,48.64865
60967,48.64865
61000,48.64865
61033,48.64865
61067,48.64865
61100,47.05882
61133,47.05882
61167,47.05882
61200,47.05882
61233,47.05882
61267,47.05882
61300,47.05882
61333,47.05882
61367,47.05882
61400,47.05882
61433,49.18033
61467,49.18033
61500,49.18033
61533,49.18033
61567,49.18033
61600,49.18033
61633,49.18033
61667,49.18033
61700,49.18033
61733,49.18033
61767,49.18033
61800,49.18033
61833,49.18033
61867,49.18033
61900,49.18033
61933,49.18033
61967,49.18033
62000,49.18033
62033,49.18033
62067,49.18033
62100,49.18033
62133,49.18033
62167,46.75325
62200,46.75325
62233,46.75325
62267,46.75325
62300,46.75325
62333,46.75325
62367,46.75325
62400,49.18033
62433,49.18033
62467,49.18033
62500,49.18033
62533,49.18033
62567,49.18033
62600,49.18033
62633,49.18033
62667,49.18033
62700,49.18033
62733,49.18033
62767,49.18033
62800,49.18033
62833,49.18033
62867,49.18033
62900,49.18033
62933,49.18033
62967,49.18033
63000,49.18033
63033,49.18033
63067,49.18033
63100,49.18033
63133,48.32215
63167,48.32215
63200,48.32215
63233,48.32215
63267,48.32215
63300,48.32215
63333,48.32215
63367,48.32215
63400,48.32215
63433,48.32215
63467,48.32215
63500,48.32215
63533,48.32215
63567,48.32215
63600,48.32215
63633,48.32215
63667,50.0
63700,50.0
63733,50.0
63767,50.0
63800,50.0
63833,50.0
63867,50.0
63900,49.72376
63933,49.72376
63967,49.72376
64000,49.72376
64033,49.72376
64067,49.72376
64100,49.72376
64133,49.72376
64167,49.72376
64200,49.72376
64233,49.72376
64267,48.64865
64300,48.64865
64333,48.64865
64367,48.64865
64400,48.64865
64433,48.64865
64467,48.64865
64500,48.64865
64533,48.64865
64567,49.72376
64600,49.45055
64633,49.45055
64667,49.45055
64700,49.45055
64733,49.45055
64767,49.45055
64800,49.45055
64833,49.45055
64867,49.45055
64900,49.45055
64933,49.72376
64967,49.72376
65000,49.72376
65033,49.72376
65067,49.72376
65100,49.72376
65133,49.72376
65167,49.72376
65200,49.72376
65233,49.72376
65267,49.72376
65300,49.72376
65333,49.72376
65367,57.6
65400,57.6
65433,57.6
65467,59.21053000000001
65500,59.21053000000001
65533,59.21053000000001
65567,59.21053000000001
65600,59.21053000000001
65633,59.21053000000001
65667,59.21053000000001
65700,59.21053000000001
65733,59.21053000000001
65767,59.21053000000001
65800,59.21053000000001
65833,59.21053000000001
65867,59.21053000000001
65900,59.21053000000001
65933,59.21053000000001
65967,59.21053000000001
66000,59.21053000000001
66033,59.21053000000001
66067,59.21053000000001
66100,59.21053000000001
66133,59.21053000000001
66167,59.21053000000001
66200,59.21053000000001
66233,59.21053000000001
66267,59.21053000000001
66300,59.21053000000001
66333,59.21053000000001
66367,59.21053000000001
66400,59.21053000000001
66433,59.21053000000001
66467,59.34066
66500,59.34066
66533,59.34066
66567,59.34066
66600,59.34066
66633,59.34066
66667,59.34066
66700,59.34066
66733,59.34066
66767,59.34066
66800,59.34066
66833,59.34066
66867,59.34066
66900,59.34066
66933,59.34066
66967,59.34066
67000,59.34066
67033,59.34066
67067,59.34066
67100,59.34066
67133,59.34066
67167,59.34066
67200,59.34066
67233,59.21053000000001
67267,59.21053000000001
67300,59.21053000000001
67333,59.21053000000001
67367,59.21053000000001
67400,59.21053000000001
67433,59.21053000000001
67467,61.01695
67500,61.01695
67533,61.01695
67567,61.01695
67600,61.01695
67633,61.01695
67667,61.01695
67700,61.01695
67733,61.01695
67767,61.01695
68000,61.01695
68033,61.01695
68067,61.01695
68100,62.68657
68133,62.68657
68167,62.68657
68200,62.68657
68233,63.15789
68267,63.15789
68300,63.15789
68333,63.15789
68367,63.15789
68400,63.15789
68433,63.15789
68467,63.15789
68500,63.15789
68533,63.15789
68567,63.15789
68600,63.15789
68633,63.15789
68667,63.15789
68700,63.15789
68733,63.15789
68767,63.15789
68800,63.15789
68833,63.15789
68867,63.15789
68900,63.15789
68933,63.15789
68967,63.15789
69000,63.15789
69033,63.15789
69067,63.15789
69100,62.68657
69133,62.68657
69167,62.68657
69200,62.68657
69233,63.52941
69267,63.52941
69300,63.52941
69333,63.52941
69367,63.52941
69400,63.52941
69433,63.52941
69467,63.52941
69500,63.52941
69533,63.52941
69567,63.52941
69600,63.52941
69633,63.52941
69667,63.52941
69700,63.52941
69733,63.52941
69767,63.52941
69800,63.52941
69833,63.52941
69867,63.52941
69900,63.52941
69933,63.52941
69967,63.52941
70000,63.52941
70033,63.52941
70067,63.52941
70100,63.52941
70133,63.95939
70167,63.95939
70200,63.95939
70233,63.95939
70267,66.25766999999999
70300,66.25766999999999
70333,66.25766999999999
70367,66.25766999999999
70400,66.25766999999999
70433,66.25766999999999
70467,66.25766999999999
70500,66.25766999999999
70533,66.25766999999999
70567,66.25766999999999
70600,66.25766999999999
70633,66.25766999999999
70667,66.25766999999999
70700,66.25766999999999
70733,68.10811
70767,68.10811
70800,68.10811
70833,68.10811
70867,68.10811
70900,68.10811
70933,68.10811
70967,68.10811
71000,68.10811
71033,68.10811
71067,68.10811
71100,68.10811
71133,68.10811
71167,68.10811
71200,68.10811
71233,68.10811
71267,68.10811
71300,68.10811
71333,68.10811
71367,68.10811
71400,68.78981
71433,68.78981
71467,68.78981
71500,68.78981
71533,68.78981
71567,68.78981
71600,68.78981
71633,68.78981
71667,68.78981
71700,68.78981
71733,68.78981
71767,67.02128
71800,67.02128
71833,66.66666
71867,66.66666
71900,66.66666
71933,66.66666
71967,67.02128
72000,67.37968000000001
72033,67.37968000000001
72067,67.74194
72100,67.74194
72667,68.78981
72700,68.78981
72733,68.78981
72767,69.23076999999999
72800,69.23076999999999
72833,69.23076999999999
72867,69.67742
72900,69.67742
72933,69.67742
72967,69.67742
73000,69.67742
73033,69.67742
73067,63.63636
73100,63.63636
73133,63.63636
73167,63.31658
73200,63.31658
73233,63.31658
73267,62.42775
73300,62.42775
73333,62.42775
73367,62.42775
73400,62.42775
73433,62.42775
73467,62.42775
73500,62.42775
73533,62.42775
73567,62.42775
73600,62.42775
73633,62.42775
73667,62.42775
73700,62.42775
73733,62.42775
73767,62.42775
73800,62.42775
73833,62.42775
73867,62.42775
73900,62.42775
73933,62.42775
73967,62.42775
74000,62.42775
74033,62.42775
74067,62.42775
74100,62.42775
74133,60.40268
74167,60.40268
74200,60.40268
74233,58.69565
74267,58.69565
74300,58.69565
74333,58.69565
74367,58.69565
74400,58.69565
74433,58.69565
74467,58.69565
74500,58.69565
74533,58.69565
74567,58.69565
74600,59.01639
74633,59.01639
74667,59.01639
74700,59.01639
74733,59.01639
74767,59.01639
74800,59.01639
74833,59.01639
74867,59.01639
74900,59.01639
74933,59.01639
74967,58.06452
75000,58.06452
75033,58.06452
75067,58.06452
75100,58.06452
75133,58.06452
75167,58.06452
75200,58.06452
75233,58.06452
75267,58.06452
75300,58.06452
75333,58.06452
75367,58.06452
75400,58.06452
75433,58.06452
75467,58.06452
75500,58.06452
75533,58.06452
75567,55.38462
75600,55.38462
75633,55.38462
75667,55.38462
75700,55.38462
75733,55.38462
75767,55.38462
75800,55.38462
75833,55.38462
75867,55.38462
75900,53.89222
75933,53.89222
75967,53.89222
76000,53.89222
76033,53.89222
76067,53.89222
76100,53.89222
76133,53.89222
76167,53.89222
76200,53.89222
76233,53.89222
76267,53.89222
76300,53.89222
76333,53.89222
76367,53.89222
76400,56.25
76433,56.25
76467,56.25
76500,56.25
76533,56.25
76567,56.25
76600,56.25
76633,56.25
76667,56.25
76700,56.25
76733,56.25
76767,56.25
76800,56.25
76833,52.94118
76867,52.94118
76900,52.94118
76933,52.94118
76967,52.94118
77000,52.94118
77033,52.94118
77067,52.94118
77100,52.94118
77133,52.94118
77167,52.94118
77200,52.94118
77233,52.94118
77267,52.94118
77300,54.82233000000001
77333,54.82233000000001
77367,54.82233000000001
77400,54.82233000000001
77433,54.82233000000001
77467,54.82233000000001
77500,54.82233000000001
77533,54.82233000000001
77567,52.63158000000001
77600,52.94118
77633,52.94118
77667,52.94118
77700,52.94118
77733,52.94118
77767,53.25444
77800,53.25444
77833,53.25444
77867,53.25444
77900,53.25444
77933,53.25444
77967,53.25444
78000,53.25444
78033,53.25444
78067,53.25444
78100,53.25444
78133,53.25444
78167,53.25444
78200,53.25444
78233,53.25444
78267,53.25444
78300,53.25444
78333,53.25444
78367,53.46535
78400,53.46535
78433,53.46535
78467,56.60378000000001
78500,56.60378000000001
78533,56.60378000000001
78567,56.60378000000001
78600,56.60378000000001
78633,56.60378000000001
78667,56.60378000000001
78700,56.60378000000001
78733,56.60378000000001
78767,56.60378000000001
78800,56.60378000000001
78833,56.60378000000001
78867,56.60378000000001
78900,56.60378000000001
78933,56.60378000000001
78967,56.60378000000001
79000,56.60378000000001
79033,56.60378000000001
79067,56.60378000000001
79100,56.60378000000001
79133,56.60378000000001
79167,56.60378000000001
79200,56.60378000000001
79233,56.60378000000001
79267,56.60378000000001
79300,56.60378000000001
79333,56.60378000000001
79367,56.60378000000001
79400,56.60378000000001
79433,56.60378000000001
79467,56.25
79500,56.25
79533,56.25
79567,56.25
79600,55.95855
79633,55.95855
79667,55.95855
79700,55.95855
79733,55.95855
79767,55.95855
79800,55.95855
79833,55.95855
79867,55.95855
79900,56.96202
79933,56.96202
79967,56.96202
80000,56.96202
80033,56.96202
80067,56.96202
80100,56.96202
80133,56.96202
80167,56.96202
80200,56.96202
80233,56.96202
80267,56.96202
80300,56.96202
80333,56.96202
80367,56.96202
80400,56.96202
80433,56.96202
80467,56.96202
80500,56.96202
80533,56.96202
80567,56.96202
80600,56.96202
81167,59.60265
81200,59.60265
81233,59.60265
81267,59.60265
81300,59.60265
81333,59.60265
81367,59.60265
81400,59.60265
81433,59.60265
81467,59.60265
81500,60.33519
81533,60.33519
81567,60.33519
81600,60.33519
81633,60.33519
81667,60.33519
81700,60.33519
81733,60.33519
81767,60.33519
81800,60.33519
81833,60.33519
81867,60.33519
81900,60.33519
81933,60.33519
81967,60.33519
82000,60.33519
82033,60.33519
82067,60.33519
82100,60.33519
82133,60.33519
82167,60.33519
82200,60.33519
82233,60.33519
82267,60.33519
82300,60.33519
82333,60.33519
82367,58.82353000000001
82400,59.21053000000001
82433,59.21053000000001
82467,59.34066
82500,59.34066
82533,59.34066
82567,59.34066
82600,59.34066
82633,59.34066
82667,59.34066
82700,59.34066
82733,59.34066
82767,59.34066
82800,59.34066
82833,59.34066
82867,59.34066
82900,59.34066
82933,59.34066
82967,59.34066
83000,59.34066
83033,59.34066
83067,59.34066
83100,59.34066
83133,59.34066
83167,59.34066
83200,59.34066
83233,57.69231
83267,57.69231
83300,57.69231
83333,57.69231
83367,57.69231
83400,57.69231
83433,57.69231
83467,57.69231
83500,57.69231
83533,57.44681
83567,57.44681
83600,57.44681
83633,57.44681
83667,57.44681
83700,57.44681
83733,57.44681
83767,57.44681
83800,57.44681
83833,57.44681
83867,57.44681
83900,57.44681
83933,57.44681
83967,57.44681
84000,57.44681
84033,57.44681
84067,57.44681
84100,58.06452
84133,58.06452
84167,58.06452
84200,58.06452
84233,58.06452
84267,58.06452
84300,58.06452
84333,58.06452
84367,58.06452
84400,58.06452
84433,58.06452
84467,58.06452
84500,58.06452
84533,58.06452
84567,58.06452
84600,58.06452
84633,58.06452
84667,58.06452
84700,58.06452
84733,58.06452
84767,58.06452
84800,58.06452
84833,58.06452
84867,58.06452
84900,58.06452
84933,58.06452
84967,58.06452
85000,58.06452
85033,58.06452
85067,58.06452
85100,58.06452
85133,58.06452
85167,58.06452
85200,59.21053000000001
85233,59.21053000000001
85267,59.21053000000001
85300,59.21053000000001
85333,59.21053000000001
85367,59.21053000000001
85400,59.21053000000001
85433,59.21053000000001
85467,59.21053000000001
85500,59.21053000000001
85533,59.21053000000001
85567,59.21053000000001
85600,59.21053000000001
85633,59.21053000000001
85667,59.21053000000001
85700,59.21053000000001
85733,59.21053000000001
85767,59.21053000000001
85800,59.21053000000001
85833,59.21053000000001
85867,59.21053000000001
85900,59.21053000000001
85933,58.69565
85967,58.69565
86000,58.69565
86033,58.69565
86067,58.69565
86100,58.69565
86133,58.69565
86167,58.69565
86200,58.69565
86233,58.69565
86267,58.69565
86300,58.69565
86333,59.21053000000001
86367,62.06896999999999
86400,62.06896999999999
86433,62.06896999999999
86467,62.06896999999999
86500,62.06896999999999
86533,62.06896999999999
86567,62.06896999999999
86600,62.06896999999999
86633,62.06896999999999
86667,62.06896999999999
86700,62.06896999999999
86733,62.06896999999999
86767,62.06896999999999
86800,62.06896999999999
86833,62.06896999999999
86867,62.06896999999999
86900,62.06896999999999
86933,62.06896999999999
86967,62.06896999999999
87000,62.06896999999999
87033,62.06896999999999
87067,62.06896999999999
87100,62.06896999999999
87133,62.06896999999999
87167,62.06896999999999
87200,62.06896999999999
87233,62.06896999999999
87267,62.06896999999999
87300,62.06896999999999
87333,62.06896999999999
87367,62.06896999999999
87400,60.67416
87433,60.67416
87467,60.67416
87500,60.67416
87533,60.33519
87567,60.33519
87600,60.33519
87633,60.33519
87667,60.33519
87700,60.33519
87733,60.33519
87767,60.33519
87800,60.33519
87833,60.33519
87867,60.33519
87900,60.33519
87933,60.33519
87967,60.33519
88000,60.33519
88033,60.33519
88067,60.33519
88100,60.33519
88133,60.33519
88167,60.33519
88200,60.33519
88233,60.33519
88267,60.33519
88300,60.40268
88333,60.40268
88367,60.40268
88400,60.40268
88433,60.40268
88467,60.40268
88500,60.40268
88533,60.40268
88567,60.40268
88600,60.40268
88633,58.37838000000001
88667,58.37838000000001
88700,58.37838000000001
88733,58.37838000000001
88767,58.06452
88800,58.06452
88833,58.06452
88867,58.06452
88900,58.06452
88933,58.06452
88967,58.06452
89000,58.06452
89033,58.06452
89067,58.06452
89100,58.06452
89133,58.06452
89167,58.06452
89200,58.06452
89233,58.06452
89267,58.06452
89300,58.44156
89333,58.44156
89367,58.44156
89400,58.44156
89433,58.44156
89467,58.44156
89500,58.44156
89533,58.44156
89567,58.44156
89600,58.44156
89633,58.44156
89667,58.44156
89700,58.44156
89733,58.44156
89767,58.44156
89800,58.44156
89833,58.44156
89867,58.44156
89900,56.5445
89933,56.5445
89967,56.5445
90000,56.5445
90033,56.5445
90067,56.5445
90100,56.5445
90133,56.5445
90167,56.5445
90200,56.5445
90233,56.5445
90267,56.5445
90300,56.5445
90333,56.5445
90367,56.25
90400,56.25
90433,56.25
90467,56.25
90500,56.25
90533,56.25
90567,56.25
90600,56.25
90633,56.25
90667,56.25
90700,56.25
90733,56.25
90767,56.25
90800,56.25
90833,56.25
90867,56.25
90900,56.25
90933,56.25
90967,56.25
91000,55.95855
91033,55.95855
91067,55.95855
91100,55.95855
91133,55.95855
91167,55.95855
91200,55.95855
91233,55.95855
91267,55.95855
91300,55.95855
91333,55.95855
91367,55.95855
91400,55.90062
91433,55.90062
91467,55.90062
91500,55.90062
91533,55.90062
91567,55.90062
91600,55.90062
91633,55.90062
91667,55.90062
91700,55.90062
91733,55.90062
91767,55.90062
91800,55.90062
91833,55.90062
91867,55.90062
91900,55.90062
91933,55.90062
91967,55.90062
92000,55.90062
92033,55.90062
92067,55.90062
92100,55.90062
92133,55.90062
92167,55.55556
92200,55.55556
92233,55.55556
92267,55.55556
92300,55.55556
92333,55.55556
92367,55.55556
92400,55.55556
92433,55.55556
92467,51.06383
92500,51.06383
92533,51.06383
92567,51.06383
92600,51.06383
92633,51.06383
92667,51.06383
92700,51.06383
92733,51.06383
92767,51.06383
92800,51.06383
92833,51.06383
92867,45.91837
92900,45.91837
92933,45.91837
92967,45.91837
93000,45.91837
93033,45.91837
93067,45.91837
93100,45.91837
93133,45.91837
93167,44.17178
93200,44.17178
93233,44.17178
93267,44.17178
93300,44.17178
93333,44.17178
93367,44.17178
93400,44.17178
93433,44.17178
93467,44.17178
93500,44.17178
93533,44.17178
93567,44.17178
93600,44.17178
93633,44.17178
93667,44.17178
93700,44.17178
93733,44.17178
93767,44.17178
93800,44.17178
93833,46.875
93867,46.875
93900,46.875
93933,46.875
93967,46.875
94000,46.875
94033,46.875
94067,46.875
94100,46.875
94133,46.875
94167,46.875
94200,46.875
94233,46.875
94267,46.45161
94300,46.45161
94333,46.45161
94367,46.45161
94400,46.45161
94433,46.45161
94467,46.45161
94500,46.45161
94533,46.45161
94567,46.45161
94600,46.45161
94633,46.45161
94667,46.45161
94700,46.45161
94733,46.45161
94767,46.45161
94800,48.91304
94833,48.91304
94867,48.91304
94900,48.91304
94933,48.91304
94967,48.91304
95000,48.91304
95033,48.91304
95067,48.91304
95100,48.91304
95133,48.91304
95167,48.91304
95200,48.91304
95233,48.91304
95267,48.91304
95300,48.91304
95333,48.91304
95367,48.91304
95400,48.91304
95433,48.91304
95467,48.91304
95500,49.31507
95533,49.31507
95567,49.31507
95600,49.31507
95633,49.31507
95667,49.31507
95700,49.31507
95733,49.31507
95767,49.31507
95800,49.31507
95833,49.31507
95867,49.31507
95900,49.31507
95933,49.31507
95967,49.31507
96000,49.31507
96033,49.31507
96067,49.31507
96100,49.31507
96133,49.31507
96167,49.31507
96200,49.31507
96233,49.31507
96267,49.31507
96300,49.31507
96333,49.31507
96367,49.31507
96400,49.31507
96433,49.31507
96467,49.31507
96500,49.31507
96533,49.31507
96567,45.22613
96600,45.22613
96633,45.22613
96667,45.22613
96700,45.22613
96733,45.22613
96767,43.37349
96800,43.37349
96833,43.37349
96867,43.37349
96900,43.37349
96933,43.37349
96967,43.37349
97000,43.37349
97033,43.37349
97067,43.37349
97100,43.37349
97133,43.37349
97167,43.37349
97200,43.37349
97233,43.37349
97267,43.37349
97300,43.37349
97333,43.37349
97367,43.37349
97400,43.37349
97433,43.37349
97467,43.37349
97500,43.37349
97533,43.37349
97567,43.37349
97600,43.37349
97633,43.37349
97667,43.37349
97700,43.37349
97733,43.37349
97767,43.37349
97800,43.37349
97833,43.37349
97867,48.64865
97900,48.64865
97933,48.64865
97967,48.64865
98000,48.64865
98033,48.64865
98067,48.64865
98100,48.64865
98133,48.64865
98167,48.64865
98200,45.0
98233,45.0
98267,45.0
98300,45.0
98333,45.0
98367,45.0
98400,45.0
98433,45.0
98467,45.0
98500,45.0
98533,45.0
98567,45.0
98600,45.0
98633,45.0
98667,45.0
98700,45.0
98733,45.0
98767,45.0
98800,45.0
98833,45.0
98867,45.0
98900,45.0
98933,45.0
98967,45.0
99000,45.0
99033,45.0
99067,45.0
99100,45.0
99133,45.0
99167,45.0
99200,45.0
99233,45.0
99267,45.0
99300,45.0
99333,46.39175
99367,46.39175
99400,46.39175
99433,46.39175
99467,46.39175
99500,46.39175
99533,46.39175
99567,46.39175
99600,46.39175
99633,46.39175
99667,46.39175
99700,43.63636
99733,43.63636
99767,43.63636
99800,43.63636
99833,43.63636
99867,43.63636
99900,43.63636
99933,43.63636
99967,43.63636
100000,43.63636
100033,43.63636
100067,43.63636
100100,43.63636
100133,43.63636
100167,43.63636
100200,43.63636
100233,43.63636
100267,43.63636
100300,43.63636
100333,43.63636
100367,43.63636
100400,43.63636
100433,43.63636
100467,45.22613
100500,45.22613
100533,45.22613
100567,45.22613
100600,45.22613
100633,45.22613
100667,42.35294
100700,42.35294
100733,42.35294
100767,42.35294
100800,42.35294
100833,42.35294
100867,42.35294
100900,42.35294
100933,42.35294
100967,42.35294
101000,42.35294
101033,42.35294
101067,42.35294
101100,42.35294
101133,42.35294
101167,42.35294
101200,42.35294
101233,42.35294
101267,42.35294
101300,42.35294
101333,42.60355
101367,42.60355
101400,42.60355
101433,42.60355
101467,45.0
101500,45.0
101533,45.0
101567,45.0
101600,45.0
101633,48.97959
101667,48.97959
101700,48.97959
101733,48.97959
101767,48.97959
101800,48.97959
101833,48.97959
101867,48.97959
101900,48.97959
101933,48.97959
101967,48.97959
102000,48.97959
102033,48.97959
102067,48.97959
102100,48.97959
102133,48.97959
102167,48.97959
102200,48.97959
102233,48.97959
102267,48.97959
102300,48.97959
102333,48.97959
102367,48.97959
102400,48.97959
102433,48.97959
102467,48.97959
102500,48.97959
102533,48.97959
102567,48.97959
102600,48.97959
102633,48.97959
102667,48.97959
102700,48.97959
102733,50.5618
102767,50.84746
102800,50.84746
102833,50.84746
102867,50.84746
102900,50.84746
102933,50.84746
102967,50.84746
103000,51.13636
103033,51.13636
103067,51.13636
103100,51.13636
103133,51.13636
103167,51.13636
103200,51.13636
103233,51.13636
103267,53.73134
103300,53.73134
103333,53.73134
103367,53.73134
103400,59.21053000000001
103433,59.21053000000001
103467,59.21053000000001
103500,59.21053000000001
103533,59.21053000000001
103567,59.21053000000001
103600,59.21053000000001
103633,59.21053000000001
103667,59.21053000000001
103700,59.21053000000001
103733,59.21053000000001
103767,59.21053000000001
103800,59.21053000000001
103833,59.21053000000001
103867,59.21053000000001
103900,59.21053000000001
103933,59.21053000000001
103967,59.21053000000001
104000,59.21053000000001
104033,59.21053000000001
104067,59.21053000000001
104100,59.21053000000001
104133,59.21053000000001
104167,59.21053000000001
104200,59.21053000000001
104233,59.66851
104267,59.66851
104300,59.66851
104333,59.66851
104367,59.66851
104400,59.66851
104433,59.66851
104467,59.66851
104500,59.66851
104533,59.66851
104567,59.66851
104600,59.66851
104633,59.66851
104667,59.66851
104700,59.66851
104733,59.66851
104767,59.66851
104800,59.66851
104833,59.66851
104867,59.66851
104900,59.66851
104933,59.66851
104967,59.66851
105000,59.66851
105033,61.22449
105067,61.22449
105100,61.22449
105133,61.22449
105167,61.22449
105200,61.36364
105233,61.36364
105267,61.36364
105300,61.36364
105333,61.36364
105367,61.36364
105400,61.36364
105433,61.36364
105467,61.36364
105500,61.36364
105533,61.01695
105567,61.01695
105600,61.01695
105633,61.01695
105667,61.01695
105700,61.01695
105733,61.01695
105767,61.01695
105800,61.01695
105833,61.01695
105867,61.01695
105900,61.01695
105933,61.01695
105967,61.01695
106000,61.01695
106033,61.01695
106067,61.01695
106100,61.01695
106133,61.01695
106167,62.5
106200,62.5
106233,62.5
106267,62.5
106300,62.5
106333,62.5
106367,60.67416
106400,60.67416
106433,60.67416
106467,60.67416
106500,60.67416
106533,60.67416
106567,62.5
106600,62.5
106633,62.5
106667,62.5
106700,62.5
106733,62.5
106767,62.5
106800,62.5
106833,62.5
106867,62.5
106900,62.5
106933,55.38462
106967,55.6701
107000,55.6701
107033,55.6701
107067,55.6701
107100,55.6701
107133,55.38462
107167,55.38462
107200,55.38462
107233,55.38462
107267,54.54546
107300,54.54546
107333,54.54546
107367,54.54546
107400,54.54546
107433,54.54546
107467,54.54546
107500,54.54546
107533,54.54546
107567,54.54546
107600,54.54546
107633,54.54546
107667,54.54546
107700,54.54546
107733,54.54546
107767,54.54546
107800,54.54546
107833,54.54546
107867,54.54546
107900,54.54546
107933,54.54546
107967,54.54546
108000,54.82233000000001
108033,54.82233000000001
108067,54.82233000000001
108100,54.82233000000001
108133,54.54546
108167,54.54546
108200,54.54546
108233,54.54546
108267,53.57143000000001
108300,53.57143000000001
108333,53.57143000000001
108367,53.57143000000001
108400,53.57143000000001
108433,53.57143000000001
108467,53.57143000000001
108500,53.57143000000001
108533,53.57143000000001
108567,53.57143000000001
108600,53.57143000000001
108633,53.57143000000001
108667,53.57143000000001
108700,53.57143000000001
108733,53.57143000000001
108767,53.57143000000001
108800,53.57143000000001
108833,53.57143000000001
108867,53.57143000000001
108900,53.57143000000001
108933,53.57143000000001
108967,50.34965
109000,50.34965
109033,50.34965
109067,50.34965
109100,51.42857
109133,51.42857
109167,51.42857
109200,51.42857
109233,51.42857
109267,51.42857
109300,51.42857
109333,51.42857
109367,51.42857
109400,51.42857
109433,51.42857
109467,51.42857
109500,51.42857
109533,51.42857
109567,51.42857
109600,51.42857
109633,51.42857
109667,51.42857
109700,51.42857
109733,51.42857
109767,51.42857
109800,51.42857
109833,51.42857
109867,51.42857
109900,51.42857
109933,51.42857
109967,51.42857
110000,51.42857
110033,51.42857
110067,51.42857
110100,49.31507
110133,50.84746
110167,50.84746
110200,50.84746
110233,50.84746
110267,50.84746
110300,50.84746
110333,50.84746
110367,50.84746
110400,50.84746
110433,50.84746
110467,51.13636
110500,51.13636
110533,51.13636
110567,51.13636
110600,51.13636
110633,51.13636
110667,51.13636
110700,51.13636
110733,51.13636
110767,51.13636
110800,51.13636
110833,51.13636
110867,51.13636
110900,51.13636
110933,51.13636
110967,51.13636
111000,51.13636
111033,51.13636
111067,51.42857
111100,51.42857
111133,51.42857
111167,51.42857
111200,51.42857
111233,51.42857
111267,51.42857
111300,51.42857
111333,51.42857
111367,51.42857
111400,51.42857
111433,51.42857
111467,51.42857
111500,51.42857
111533,51.42857
111567,51.42857
111600,51.42857
111633,51.42857
111667,51.42857
111700,51.42857
111733,51.42857
111767,51.42857
111800,51.42857
111833,51.13636
111867,51.13636
111900,51.13636
111933,51.13636
111967,51.13636
112000,51.13636
112033,51.13636
112067,57.14286
112100,57.14286
112133,57.14286
112167,57.14286
112200,57.14286
112233,56.25
112267,56.25
112300,56.25
112333,56.25
112367,56.25
112400,56.25
112433,56.25
112467,56.25
112500,56.25
112533,56.25
112567,56.25
112600,56.25
112633,56.25
112667,56.25
112700,56.25
112733,56.25
112767,56.25
112800,56.25
112833,56.25
112867,56.25
112900,56.25
112933,56.25
112967,56.25
113000,56.25
113033,56.25
113067,56.25
113100,56.25
113133,56.25
113167,56.25
113200,56.25
113233,56.25
113267,56.25
113300,56.25
113333,56.25
113367,56.25
113400,56.25
113433,56.25
113467,56.25
113500,56.84211
113533,56.84211
113567,56.84211
113600,56.84211
113633,56.84211
113667,56.84211
113700,56.84211
113733,57.69231
113767,57.69231
113800,57.69231
113833,57.69231
113867,57.69231
113900,57.69231
113933,57.69231
113967,57.69231
114000,57.69231
114033,57.69231
114067,57.69231
114100,57.69231
114133,57.69231
114167,57.69231
114200,57.69231
114233,57.69231
114267,57.69231
114300,57.69231
114333,57.69231
114367,57.69231
114400,57.69231
114433,57.69231
114467,57.69231
114500,57.69231
114533,57.69231
114567,57.69231
114600,57.69231
114633,57.69231
114667,57.69231
114700,57.69231
114733,57.69231
114767,57.69231
114800,57.14286
114833,57.14286
114867,57.32484
114900,57.32484
114933,57.32484
114967,57.32484
115000,57.32484
115033,57.32484
115067,57.32484
115100,57.32484
115133,57.32484
115167,57.32484
115200,57.32484
115233,57.32484
115267,57.32484
115300,57.32484
115333,57.32484
115367,57.32484
115400,57.32484
115433,57.32484
115467,57.32484
115500,57.32484
115533,57.32484
115567,57.32484
115600,57.32484
115633,57.32484
115667,57.32484
115700,57.32484
115733,57.32484
115767,57.32484
115800,57.32484
115833,57.32484
115867,57.32484
115900,57.32484
115933,56.69291
115967,56.69291
116000,56.69291
116033,56.69291
116067,56.69291
116100,56.69291
116133,56.69291
116167,56.69291
116200,56.69291
116233,48.91304
116267,48.91304
116300,48.91304
116333,48.91304
116367,48.91304
116400,48.91304
116433,48.91304
116467,48.91304
116500,48.91304
116533,48.91304
116567,48.91304
116600,48.91304
116633,48.91304
116667,48.91304
116700,48.91304
116733,48.91304
116767,48.91304
116800,48.91304
116833,48.91304
116867,48.91304
116900,48.91304
116933,46.75325
116967,46.75325
117000,46.75325
117033,46.75325
117067,46.75325
117100,46.75325
117133,46.75325
117167,46.75325
117200,46.75325
117233,46.75325
117267,46.75325
117300,46.75325
117333,46.75325
117367,46.75325
117400,46.75325
117433,46.75325
117467,46.75325
117500,46.75325
117533,46.75325
117567,46.75325
117600,46.75325
117633,46.75325
117667,46.75325
117700,46.75325
117733,46.75325
117767,46.75325
117800,46.75325
117833,46.75325
117867,46.75325
117900,46.75325
117933,42.10526
117967,42.10526
118000,42.10526
118033,42.10526
118067,42.10526
118100,42.10526
118133,42.10526
118167,42.10526
118200,42.10526
118233,42.10526
118267,42.10526
118300,42.10526
118333,42.10526
118367,42.10526
118400,42.10526
118433,42.10526
118467,42.10526
118500,42.10526
118533,42.10526
118567,42.10526
118600,42.10526
118633,42.10526
118667,42.10526
118700,42.10526
118733,42.10526
118767,42.10526
118800,42.10526
118833,42.10526
118867,45.22613
118900,45.22613
118933,45.22613
118967,45.22613
119000,45.22613
119033,45.22613
119067,42.60355
119100,42.60355
119133,42.60355
119167,42.60355
119200,42.60355
119233,42.60355
119267,42.60355
119300,42.60355
119333,42.60355
119367,42.60355
119400,42.60355
119433,42.60355
119467,42.60355
119500,42.60355
119533,42.60355
119567,42.60355
119600,42.60355
119633,42.60355
119667,42.60355
119700,42.60355
119733,42.60355
119767,42.60355
119800,42.60355
119833,42.60355
119867,42.60355
119900,45.0
119933,45.0
119967,45.0
120000,45.22613
120033,45.22613
120067,43.37349
120100,43.37349
120133,43.37349
120167,43.37349
120200,43.37349
120233,43.37349
120267,43.37349
120300,43.37349
120333,43.37349
120367,43.37349
120400,43.37349
120433,43.37349
120467,43.37349
120500,43.37349
120533,43.37349
120567,43.37349
120600,43.37349
120633,43.37349
120667,43.37349
120700,43.37349
120733,46.875
120767,46.875
120800,46.875
120833,46.875
120867,46.875
120900,46.875
120933,46.875
120967,46.875
121000,46.875
121033,46.875
121067,46.875
121100,46.875
121133,46.875
121167,53.33333
121200,53.33333
121233,53.33333
121267,53.33333
121300,53.33333
121333,53.33333
121367,53.33333
121400,53.33333
121433,53.33333
121467,53.33333
121500,53.33333
121533,53.33333
121567,53.33333
121600,53.33333
121633,53.33333
121667,53.33333
121700,53.33333
121733,54.54546
121767,54.54546
121800,54.54546
121833,54.54546
121867,54.54546
121900,54.54546
121933,54.54546
121967,54.54546
122000,54.54546
122033,54.54546
122067,54.54546
122100,54.54546
122133,54.54546
122167,54.54546
122200,54.54546
122233,54.54546
122267,54.54546
122300,54.54546
122333,54.54546
122367,54.54546
122400,54.54546
122433,54.54546
122467,54.54546
122500,54.54546
122533,54.54546
122567,54.54546
122600,54.54546
122633,54.54546
122667,55.95855
122700,55.95855
122733,55.95855
122767,55.95855
122800,55.95855
122833,55.95855
122867,55.95855
122900,55.95855
122933,55.95855
122967,55.95855
123000,55.95855
123033,55.95855
123067,63.380280000000006
123100,63.380280000000006
123133,63.380280000000006
123167,63.380280000000006
123200,63.380280000000006
123233,63.380280000000006
123267,63.380280000000006
123300,63.380280000000006
123333,63.380280000000006
123367,63.380280000000006
123400,63.380280000000006
123433,63.380280000000006
123467,63.380280000000006
123500,63.380280000000006
123533,63.380280000000006
123567,63.380280000000006
123600,63.380280000000006
123633,63.380280000000006
123667,62.7907
123700,62.7907
123733,62.7907
123767,62.7907
123800,62.7907
123833,62.7907
123867,62.7907
123900,62.7907
123933,62.7907
123967,62.7907
124000,62.7907
124033,62.7907
124067,62.7907
124100,62.7907
124133,62.7907
124167,62.7907
124200,62.7907
124233,62.7907
124267,62.7907
124300,62.7907
124333,62.7907
124367,62.7907
124400,62.7907
124433,62.7907
124467,62.7907
124500,62.7907
124533,62.7907
124567,62.7907
124600,62.7907
124633,62.7907
124667,62.7907
124700,62.7907
124733,61.76471
124767,61.36364
124800,61.36364
124833,61.36364
124867,61.36364
124900,61.36364
124933,61.36364
124967,61.36364
125000,61.36364
125033,61.36364
125067,61.36364
125100,61.36364
125133,61.36364
125167,61.36364
125200,61.36364
125233,61.36364
125267,61.36364
125300,61.36364
125333,61.36364
125367,61.36364
125400,61.36364
125433,61.36364
125467,61.36364
125500,61.36364
125533,61.36364
125567,61.36364
125600,61.36364
125633,61.36364
125667,61.36364
125700,61.64384
125733,61.64384
125767,61.64384
125800,61.64384
125833,60.33519
125867,60.67416
125900,60.67416
125933,60.67416
125967,60.33519
126000,60.33519
126033,60.33519
126067,60.33519
126100,60.33519
126133,60.33519
126167,60.33519
126200,60.33519
126233,60.33519
126267,60.33519
126300,60.33519
126333,60.33519
126367,60.33519
126400,60.33519
126433,60.33519
126467,60.33519
126500,60.33519
126533,60.33519
126567,60.33519
126600,60.33519
126633,60.33519
126667,60.33519
126700,59.21053000000001
126733,59.21053000000001
126767,59.21053000000001
126800,59.66851
126833,59.66851
126867,59.66851
126900,59.66851
126933,59.66851
126967,59.66851
127000,59.66851
127033,59.66851
127067,59.66851
127100,59.66851
127133,59.66851
127167,59.66851
127200,59.66851
127233,59.66851
127267,59.66851
127300,59.66851
127333,60.0
127367,60.0
127400,60.0
127433,60.0
127467,60.0
127500,60.0
127533,60.0
127567,60.0
127600,59.60265
127633,59.60265
127667,60.67416
127700,60.67416
127733,60.67416
127767,60.67416
127800,60.67416
127833,60.67416
127867,60.67416
127900,60.67416
127933,60.67416
127967,60.67416
128000,60.67416
128033,60.67416
128067,60.67416
128100,60.67416
128133,60.67416
128167,60.67416
128200,60.67416
128233,60.67416
128267,60.67416
128300,60.67416
128333,60.67416
128367,60.67416
128400,60.67416
128433,60.67416
128467,60.67416
128500,60.67416
128533,60.67416
128567,60.0
128600,60.0
128633,60.0
128667,60.0
128700,59.66851
128733,59.66851
128767,59.66851
128800,59.66851
128833,59.66851
128867,59.66851
128900,59.66851
128933,59.66851
128967,59.66851
129000,59.66851
129033,59.66851
129067,59.66851
129100,59.66851
129133,59.66851
129167,59.66851
129200,59.66851
129233,59.66851
129267,59.66851
129300,59.66851
129333,59.66851
129367,59.66851
129400,59.66851
129433,59.66851
129467,59.66851
129500,59.21053000000001
129533,59.21053000000001
129567,59.21053000000001
129600,59.21053000000001
129633,59.21053000000001
129667,59.21053000000001
129700,59.21053000000001
129733,59.01639
129767,59.01639
129800,59.01639
129833,59.01639
129867,59.01639
129900,59.01639
129933,59.01639
129967,59.01639
130000,59.01639
130033,59.01639
130067,59.01639
130100,59.01639
130133,59.01639
130167,59.01639
130200,59.01639
130233,59.01639
130267,59.01639
130300,59.01639
130333,59.01639
130367,59.01639
130400,59.01639
130433,59.01639
130467,60.0
130500,60.0
130533,60.0
130567,60.0
130600,60.0
130633,60.0
130667,60.67416
130700,60.67416
130733,60.67416
130767,60.67416
130800,60.67416
130833,60.67416
130867,60.67416
130900,60.67416
130933,60.67416
130967,60.67416
131000,60.67416
131033,60.67416
131067,60.67416
131100,60.67416
131133,60.67416
131167,60.67416
131200,60.67416
131233,60.67416
131267,60.67416
131300,60.67416
131333,60.67416
131367,60.67416
131400,60.67416
131433,60.67416
131467,60.67416
131500,60.67416
131533,60.67416
131567,62.06896999999999
131600,62.06896999999999
131633,62.06896999999999
131667,61.71429000000001
131700,61.71429000000001
131733,61.71429000000001
131767,61.71429000000001
131800,61.71429000000001
131833,61.71429000000001
131867,61.71429000000001
131900,61.71429000000001
131933,61.71429000000001
131967,61.71429000000001
132000,61.71429000000001
132033,61.71429000000001
132067,61.71429000000001
132100,61.71429000000001
132133,61.71429000000001
132167,61.71429000000001
132200,61.71429000000001
132233,62.06896999999999
132267,62.06896999999999
132300,62.06896999999999
132333,62.06896999999999
132367,62.06896999999999
132400,62.06896999999999
132433,62.06896999999999
132467,62.06896999999999
132500,62.06896999999999
132533,62.06896999999999
132567,62.06896999999999
132600,62.06896999999999
132633,62.06896999999999
132667,60.81081
132700,60.81081
132733,60.81081
132767,60.81081
132800,60.81081
132833,60.81081
132867,60.81081
132900,61.01695
132933,61.01695
132967,61.01695
133000,61.01695
133033,61.01695
133067,61.01695
133100,61.01695
133133,61.01695
133167,61.01695
133200,61.01695
133233,61.01695
133267,61.01695
133300,61.01695
133333,61.01695
133367,61.36364
133400,61.36364
133433,61.36364
133467,61.36364
133500,61.36364
133533,61.36364
133567,61.01695
133600,61.01695
133633,61.01695
133667,61.01695
133700,61.01695
133733,61.01695
133767,61.01695
133800,61.01695
133833,61.01695
133867,61.01695
133900,61.01695
133933,61.01695
133967,61.01695
134000,61.01695
134033,61.01695
134067,61.01695
134100,61.01695
134133,61.01695
134167,61.01695
134200,61.01695
134233,61.01695
134267,61.01695
134300,61.01695
134333,61.01695
134367,61.01695
134400,61.01695
134433,61.01695
134467,61.01695
134500,61.64384
134533,61.64384
134567,61.36364
134600,61.36364
134633,61.36364
134667,61.36364
134700,61.36364
134733,61.36364
134767,61.36364
134800,61.36364
134833,61.36364
134867,61.36364
134900,61.36364
134933,61.36364
134967,61.36364
135000,61.36364
135033,61.36364
135067,61.36364
135100,61.36364
135133,61.36364
135167,61.36364
135200,61.36364
135233,61.36364
135267,61.36364
135300,61.36364
135333,61.36364
135367,61.36364
135400,61.36364
135433,61.36364
135467,61.36364
135500,61.36364
135533,62.06896999999999
135567,62.06896999999999
135600,63.905330000000006
135633,63.905330000000006
135667,63.905330000000006
135700,63.905330000000006
135733,63.905330000000006
135767,63.905330000000006
135800,63.905330000000006
135833,63.905330000000006
135867,63.905330000000006
135900,63.905330000000006
135933,63.905330000000006
135967,63.905330000000006
136000,63.905330000000006
136033,63.905330000000006
136067,63.905330000000006
136100,63.905330000000006
136133,63.905330000000006
136167,63.905330000000006
136200,63.905330000000006
136233,63.905330000000006
136267,63.905330000000006
136300,63.905330000000006
136333,63.905330000000006
136367,63.905330000000006
136400,63.905330000000006
136433,63.905330000000006
136467,63.905330000000006
136500,62.06896999999999
136533,62.06896999999999
136567,61.71429000000001
136600,61.71429000000001
136633,61.71429000000001
136667,61.71429000000001
136700,61.71429000000001
136733,61.71429000000001
136767,61.71429000000001
136800,61.71429000000001
136833,61.71429000000001
136867,61.71429000000001
136900,61.71429000000001
136933,61.71429000000001
136967,61.71429000000001
137000,61.71429000000001
137033,61.71429000000001
137067,61.71429000000001
137100,61.71429000000001
137133,61.71429000000001
137167,61.71429000000001
137200,61.71429000000001
137233,61.71429000000001
137267,61.71429000000001
137300,61.71429000000001
137333,61.71429000000001
137367,61.36364
137400,61.36364
137433,61.36364
137467,61.36364
137500,61.64384
137533,61.64384
137567,61.64384
137600,61.64384
137633,60.33519
137667,60.33519
137700,60.33519
137733,60.33519
137767,60.33519
137800,60.33519
137833,60.33519
137867,60.33519
137900,60.33519
137933,60.33519
137967,60.33519
138000,60.33519
138033,60.33519
138067,60.33519
138100,60.33519
138133,60.33519
138167,60.33519
138200,60.33519
138233,60.33519
138267,60.33519
138300,60.33519
138333,60.33519
138367,60.33519
138400,60.33519
138433,60.33519
138467,60.33519
138500,59.60265
138533,59.60265
138567,61.01695
138600,61.01695
138633,61.01695
138667,61.01695
138700,61.01695
138733,61.01695
138767,61.01695
138800,61.01695
138833,61.01695
138867,61.01695
138900,61.01695
138933,61.01695
138967,61.01695
139000,61.01695
139033,61.01695
139067,61.01695
139100,61.01695
139133,61.01695
139167,61.01695
139200,61.01695
139233,61.01695
139267,61.01695
139300,61.01695
139333,61.01695
139367,61.01695
139400,61.01695
139433,61.36364
139467,61.36364
139500,61.36364
139533,61.36364
139567,61.36364
139600,61.36364
139633,61.36364
139667,61.36364
139700,61.36364
139733,61.36364
139767,61.36364
139800,61.36364
139833,61.36364
139867,61.36364
139900,61.36364
139933,61.36364
139967,61.36364
140000,61.36364
140033,61.36364
140067,61.36364
140100,61.36364
140133,61.36364
140167,61.36364
140200,61.36364
140233,61.36364
140267,61.36364
140300,61.36364
140333,61.36364
140367,61.36364
140400,61.64384
140433,61.36364
140467,61.36364
140500,61.01695
140533,61.01695
140567,61.01695
140600,61.01695
140633,61.01695
140667,61.01695
140700,61.01695
140733,61.01695
140767,61.01695
140800,61.01695
140833,61.01695
140867,61.01695
140900,61.01695
140933,61.01695
140967,61.01695
141000,61.01695
141033,61.01695
141067,61.01695
141100,61.01695
141133,61.01695
141167,61.01695
141200,61.01695
141233,61.01695
141267,61.01695
141300,61.01695
141333,61.01695
141367,61.01695
141400,58.82353000000001
141433,58.82353000000001
141467,58.82353000000001
141500,58.82353000000001
141533,58.37838000000001
141567,58.37838000000001
141600,58.37838000000001
141633,58.37838000000001
141667,58.37838000000001
141700,58.37838000000001
141733,58.37838000000001
141767,58.37838000000001
141800,58.37838000000001
141833,58.37838000000001
141867,58.37838000000001
141900,58.37838000000001
141933,58.37838000000001
141967,58.37838000000001
142000,58.37838000000001
142033,58.37838000000001
142067,58.37838000000001
142100,58.37838000000001
142133,58.37838000000001
142167,58.37838000000001
142200,60.0
142233,60.0
142267,60.0
142300,60.0
142333,60.0
142367,60.0
142400,60.0
142433,60.0
142467,60.0
142500,60.0
142533,60.0
142567,60.0
142600,60.0
142633,60.0
142667,60.0
142700,60.0
142733,60.0
142767,60.0
142800,57.44681
142833,57.44681
142867,57.44681
142900,57.44681
142933,57.44681
142967,57.44681
143000,57.44681
143033,57.44681
143067,57.44681
143100,57.44681
143133,57.44681
143167,57.44681
143200,57.44681
143233,57.44681
143267,57.44681
143300,57.44681
143333,57.44681
143367,58.44156
143400,58.44156
143433,58.44156
143467,58.44156
143500,58.44156
143533,58.44156
143567,58.44156
143600,58.44156
143633,58.44156
143667,58.44156
143700,58.44156
143733,58.44156
143767,58.44156
143800,58.44156
143833,58.44156
143867,58.44156
143900,58.44156
143933,58.44156
143967,58.44156
144000,56.84211
144033,56.84211
144067,56.84211
144100,56.84211
144133,56.84211
144167,56.84211
144200,56.84211
144233,56.84211
144267,56.84211
144300,56.84211
144333,56.84211
144367,56.84211
144400,56.84211
144433,56.84211
144467,56.84211
144500,54.54546
144533,54.54546
144567,54.54546
144600,54.54546
144633,54.54546
144667,54.54546
144700,54.54546
144733,54.54546
144767,54.54546
144800,54.54546
144833,54.54546
144867,54.54546
144900,54.54546
144933,54.54546
144967,54.54546
145000,54.54546
145033,54.54546
145067,54.54546
145100,54.54546
145133,54.27136
145167,54.27136
145200,54.27136
145233,54.27136
145267,54.27136
145300,54.27136
145333,52.63158000000001
145367,52.63158000000001
145400,52.63158000000001
145433,52.63158000000001
145467,52.63158000000001
145500,52.63158000000001
145533,52.63158000000001
145567,52.63158000000001
145600,52.63158000000001
145633,52.63158000000001
145667,52.63158000000001
145700,52.63158000000001
145733,52.63158000000001
145767,52.63158000000001
145800,52.63158000000001
145833,52.63158000000001
145867,52.63158000000001
145900,52.63158000000001
145933,52.63158000000001
145967,52.63158000000001
146000,52.63158000000001
146033,52.63158000000001
146067,52.63158000000001
146100,52.63158000000001
146133,52.63158000000001
146167,53.46535
146200,53.46535
146233,53.46535
146267,52.32558
146300,52.32558
146333,52.32558
146367,52.32558
146400,52.32558
146433,52.32558
146467,52.32558
146500,52.32558
146533,52.32558
146567,52.32558
146600,52.32558
146633,52.32558
146667,52.32558
146700,52.32558
146733,52.32558
146767,52.32558
146800,52.32558
146833,52.32558
146867,52.32558
146900,52.32558
146933,52.32558
146967,52.32558
147000,52.32558
147033,52.32558
147067,52.32558
147100,52.32558
147133,52.32558
147167,52.32558
147200,52.32558
147233,52.32558
147267,51.79856
147300,51.79856
147333,51.79856
147367,51.79856
147400,51.79856
147433,51.79856
147467,51.79856
147500,51.79856
147533,51.79856
147567,51.79856
147600,51.42857
147633,51.42857
147667,52.63158000000001
147700,52.63158000000001
147733,52.63158000000001
147767,52.63158000000001
147800,52.63158000000001
147833,52.63158000000001
147867,52.63158000000001
147900,52.63158000000001
147933,52.63158000000001
147967,52.63158000000001
148000,52.63158000000001
148033,52.63158000000001
148067,52.63158000000001
148100,52.63158000000001
148133,52.63158000000001
148167,52.63158000000001
148200,52.63158000000001
148233,52.63158000000001
148267,52.63158000000001
148300,52.63158000000001
148333,54.13534
148367,54.13534
148400,54.13534
148433,54.13534
148467,54.13534
148500,54.13534
148533,54.13534
148567,54.13534
148600,51.42857
148633,51.42857
148667,51.42857
148700,51.42857
148733,51.42857
148767,51.42857
148800,51.42857
148833,51.42857
148867,51.42857
148900,51.42857
148933,51.42857
148967,51.42857
149000,51.42857
149033,51.42857
149067,51.42857
149100,51.42857
149133,51.42857
149167,51.42857
149200,51.42857
149233,51.42857
149267,51.42857
149300,51.42857
149333,51.42857
149367,51.42857
149400,51.42857
149433,51.42857
149467,51.42857
149500,51.42857
149533,51.42857
149567,51.42857
149600,52.17391
149633,52.17391
149667,52.94118
149700,52.94118
149733,52.94118
149767,52.94118
149800,52.94118
149833,52.94118
149867,52.94118
149900,52.94118
149933,52.94118
149967,52.94118
150000,52.94118
150033,52.94118
150067,52.94118
150100,52.94118
150133,52.94118
150167,52.94118
150200,52.94118
150233,52.94118
150267,52.94118
150300,52.94118
150333,52.94118
150367,52.94118
150400,52.94118
150433,52.94118
150467,52.94118
150500,52.94118
150533,52.94118
150567,52.94118
150600,52.94118
150633,52.94118
150667,52.94118
150700,52.94118
150733,53.46535
150767,53.46535
150800,53.46535
150833,53.57143000000001
150867,53.57143000000001
150900,53.57143000000001
150933,53.57143000000001
150967,53.57143000000001
151000,53.57143000000001
151033,53.57143000000001
151067,53.57143000000001
151100,53.57143000000001
151133,53.57143000000001
151167,53.57143000000001
151200,53.57143000000001
151233,53.57143000000001
151267,53.57143000000001
151300,53.57143000000001
151333,53.57143000000001
151367,53.57143000000001
151400,53.57143000000001
151433,53.57143000000001
151467,53.57143000000001
151500,53.57143000000001
151533,53.57143000000001
151567,53.57143000000001
151600,53.57143000000001
151633,53.57143000000001
151667,53.57143000000001
151700,54.82233000000001
151733,54.82233000000001
151767,54.82233000000001
151800,54.82233000000001
151833,54.82233000000001
151867,54.82233000000001
151900,54.82233000000001
151933,54.82233000000001
151967,54.21686999999999
152000,54.21686999999999
152033,54.21686999999999
152067,54.21686999999999
152100,54.21686999999999
152133,54.21686999999999
152167,54.21686999999999
152200,54.21686999999999
152233,54.21686999999999
152267,54.21686999999999
152300,54.21686999999999
152333,54.21686999999999
152367,54.21686999999999
152400,54.21686999999999
152433,54.21686999999999
152467,54.21686999999999
152500,54.21686999999999
152533,54.21686999999999
152567,54.21686999999999
152600,57.44681
152633,57.44681
152667,57.44681
152700,57.44681
152733,57.44681
152767,57.44681
152800,57.44681
152833,57.44681
152867,57.44681
152900,57.44681
152933,57.44681
152967,57.44681
153000,57.32484
153033,57.32484
153067,53.33333
153100,53.33333
153133,53.33333
153167,53.33333
153200,53.33333
153233,53.33333
153267,53.33333
153300,53.33333
153333,53.33333
153367,53.33333
153400,48.3871
153433,48.3871
153467,48.3871
153500,48.3871
153533,48.3871
153567,48.3871
153600,48.3871
153633,48.3871
153667,48.3871
153700,48.3871
153733,48.3871
153767,48.3871
153800,48.3871
153833,48.3871
153867,48.3871
153900,48.3871
153933,48.3871
153967,48.3871
154000,48.3871
154033,50.0
154067,50.0
154100,50.0
154133,50.0
154167,50.0
154200,50.0
154233,50.0
154267,50.0
154300,50.0
154333,50.0
154367,50.0
154400,50.0
154433,51.42857
154467,51.42857
154500,51.42857
154533,51.42857
154567,51.42857
154600,51.42857
154633,51.42857
154667,51.42857
154700,51.42857
154733,51.42857
154767,51.42857
154800,51.42857
154833,51.42857
154867,51.42857
154900,51.42857
154933,51.42857
154967,51.42857
155000,51.42857
155033,51.42857
155067,51.42857
155100,51.42857
155133,51.42857
155167,51.42857
155200,51.42857
155233,51.42857
155267,51.42857
155300,51.42857
155333,53.46535
155367,53.46535
155400,53.46535
155433,52.94118
155467,52.94118
155500,52.94118
155533,52.94118
155567,52.94118
155600,52.94118
155633,52.94118
155667,52.94118
155700,52.94118
155733,52.94118
155767,52.94118
155800,52.94118
155833,52.94118
155867,52.94118
155900,52.94118
155933,52.94118
155967,52.94118
156000,52.94118
156033,52.94118
156067,52.94118
156100,52.94118
156133,52.94118
156167,52.94118
156200,52.94118
156233,52.94118
156267,52.94118
156300,52.94118
156333,52.94118
156367,52.94118
156400,52.94118
156433,52.94118
156467,52.94118
156500,51.79856
156533,51.79856
156567,51.79856
156600,51.79856
156633,51.79856
156667,51.79856
156700,51.79856
156733,51.79856
156767,51.79856
156800,51.79856
156833,51.79856
156867,51.79856
156900,51.79856
156933,51.79856
156967,51.79856
157000,51.79856
157033,51.79856
157067,51.79856
157100,46.875
157133,46.875
157167,46.875
157200,46.875
157233,46.875
157267,46.875
157300,46.875
157333,46.875
157367,46.875
157400,46.875
157433,46.875
157467,46.875
157500,46.875
157533,44.7205
157567,44.7205
157600,44.7205
157633,44.7205
157667,44.7205
157700,44.7205
157733,44.7205
157767,44.7205
157800,44.7205
157833,44.7205
157867,44.7205
157900,44.7205
157933,44.7205
157967,44.7205
158000,44.7205
158033,44.7205
158067,47.36842
158100,47.36842
158133,47.36842
158167,47.36842
158200,47.36842
158233,47.36842
158267,47.36842
158300,47.36842
158333,47.36842
158367,47.36842
158400,47.36842
158433,47.36842
158467,47.36842
158500,47.36842
158533,47.36842
158567,51.79856
158600,51.79856
158633,51.79856
158667,51.79856
158700,51.79856
158733,51.79856
158767,51.79856
158800,51.79856
158833,51.79856
158867,51.79856
158900,51.79856
158933,51.79856
158967,51.79856
159000,51.79856
159033,51.79856
159067,51.79856
159100,53.25444
159133,53.25444
159167,52.94118
159200,52.94118
159233,52.94118
159267,52.94118
159300,52.94118
159333,52.94118
159367,52.94118
159400,52.94118
159433,52.94118
159467,52.94118
159500,52.94118
159533,52.94118
159567,52.94118
159600,52.94118
159633,52.94118
159667,52.94118
159700,52.94118
159733,52.94118
159767,52.94118
159800,52.94118
159833,52.94118
159867,52.94118
159900,52.94118
159933,52.94118
159967,52.94118
160000,52.94118
160033,52.94118
160067,52.94118
160100,52.94118
160133,52.94118
160167,52.94118
160200,52.94118
160233,52.94118
160267,51.42857
160300,51.42857
160333,51.42857
160367,51.42857
160400,51.42857
160433,51.42857
160467,51.42857
160500,51.42857
160533,51.42857
160567,51.42857
160600,51.42857
160633,51.42857
160667,51.42857
160700,51.13636
160733,51.13636
160767,51.13636
160800,51.13636
160833,51.13636
160867,51.13636
160900,51.13636
160933,51.13636
160967,51.13636
161000,51.13636
161033,51.13636
161067,51.13636
161100,51.13636
161133,51.13636
161167,61.36364
161200,61.36364
161233,61.36364
161267,60.40268
161300,60.40268
161333,60.40268
161367,60.40268
161400,60.40268
161433,60.40268
161467,60.40268
161500,60.40268
161533,60.40268
161567,60.40268
161600,60.40268
161633,60.40268
161667,60.40268
161700,60.40268
161733,56.25
161767,56.25
161800,56.25
161833,56.25
161867,56.25
161900,56.25
161933,56.25
161967,56.25
162000,56.25
162033,55.95855
162067,55.95855
162100,55.95855
162133,55.95855
162167,52.94118
162200,52.94118
162233,52.94118
162267,52.94118
162300,52.94118
162333,52.94118
162367,52.94118
162400,52.94118
162433,52.94118
162467,52.63158000000001
162500,52.63158000000001
162533,52.63158000000001
162567,52.63158000000001
162600,52.63158000000001
162633,52.63158000000001
162667,52.63158000000001
162700,52.63158000000001
162733,52.63158000000001
162767,52.63158000000001
162800,52.63158000000001
162833,52.63158000000001
162867,52.94118
162900,52.02312
162933,52.02312
162967,52.02312
163000,52.02312
163033,52.02312
163067,52.02312
163100,52.02312
163133,52.02312
163167,52.02312
163200,52.02312
163233,52.02312
163267,52.02312
163300,52.02312
163333,52.02312
163367,52.02312
163400,52.02312
163433,52.02312
163467,52.02312
163500,52.02312
163533,52.02312
163567,52.02312
163600,52.02312
163633,52.02312
163667,52.02312
163700,52.02312
163733,52.02312
163767,52.02312
163800,52.02312
163833,53.46535
163867,53.46535
163900,53.46535
163933,52.02312
163967,52.02312
164000,52.02312
164033,52.02312
164067,52.02312
164100,52.02312
164133,52.02312
164167,52.02312
164200,52.02312
164233,52.02312
164267,52.02312
164300,52.02312
164333,52.02312
164367,52.02312
164400,52.02312
164433,52.02312
164467,52.02312
164500,52.02312
164533,52.02312
164567,52.02312
164600,52.02312
164633,52.02312
164667,52.02312
164700,52.02312
164733,52.02312
164767,52.02312
164800,52.02312
164833,52.02312
164867,52.02312
164900,50.70422
164933,51.42857
164967,51.42857
165000,51.42857
165033,51.42857
165067,51.42857
165100,51.42857
165133,51.42857
165167,51.42857
165200,51.42857
165233,51.42857
165267,51.42857
165300,51.42857
165333,51.42857
165367,51.42857
165400,51.42857
165433,51.42857
165467,51.42857
165500,51.42857
165533,51.42857
165567,51.42857
165600,51.42857
165633,51.42857
165667,51.42857
165700,51.42857
165733,51.42857
165767,51.42857
165800,51.42857
165833,51.42857
165867,51.42857
165900,52.94118
165933,53.25444
165967,53.25444
166000,53.25444
166033,53.25444
166067,53.25444
166100,53.25444
166133,53.25444
166167,53.25444
166200,53.25444
166233,53.25444
166267,53.25444
166300,53.25444
166333,53.25444
166367,53.25444
166400,53.25444
166433,53.25444
166467,53.25444
166500,53.25444
166533,53.25444
166567,53.25444
166600,53.25444
166633,53.25444
166667,53.25444
166700,53.25444
166733,53.25444
166767,53.25444
166800,53.25444
166833,53.25444
166867,53.25444
166900,53.25444
166933,53.25444
166967,53.25444
167000,53.73134
167033,53.73134
167067,53.73134
167100,53.73134
167133,57.32484
167167,57.32484
167200,57.32484
167233,57.32484
167267,57.32484
167300,57.32484
167333,57.32484
167367,57.32484
167400,56.96202
167433,56.96202
167467,56.96202
167500,56.96202
167533,56.96202
167567,56.96202
167600,56.96202
167633,56.96202
167667,56.96202
167700,56.96202
167733,56.96202
167767,56.96202
167800,56.96202
167833,56.96202
167867,56.96202
167900,56.96202
167933,56.96202
167967,56.96202
168000,56.96202
168033,56.96202
168067,56.96202
168100,56.96202
168133,56.96202
168167,56.96202
168200,56.96202
168233,56.96202
168267,56.96202
168300,55.38462
168333,55.38462
168367,55.38462
168400,55.38462
168433,55.10204
168467,55.10204
168500,55.10204
168533,55.10204
168567,55.10204
168600,55.21473
168633,55.21473
168667,55.21473
168700,55.21473
168733,55.21473
168767,55.21473
168800,55.21473
168833,55.21473
168867,55.21473
168900,55.21473
168933,55.21473
168967,55.21473
169000,55.21473
169033,55.21473
169067,55.21473
169100,55.21473
169133,55.21473
169167,55.21473
169200,55.21473
169233,55.21473
169267,55.21473
169300,55.21473
169333,55.6701
169367,55.6701
169400,55.6701
169433,55.6701
169467,55.6701
169500,55.6701
169533,55.6701
169567,55.6701
169600,55.6701
169633,55.6701
169667,54.87805
169700,54.87805
169733,54.87805
169767,54.87805
169800,54.87805
169833,54.87805
169867,54.87805
169900,54.87805
169933,54.87805
169967,54.87805
170000,54.87805
170033,54.87805
170067,54.87805
170100,54.87805
170133,54.87805
170167,54.87805
170200,54.87805
170233,54.87805
170267,54.87805
170300,54.87805
170333,54.87805
170367,54.87805
170400,54.87805
170433,54.87805
170467,54.87805
170500,54.87805
170533,54.87805
170567,53.73134
170600,54.87805
170633,53.20197
170667,53.20197
170700,52.63158000000001
170733,52.63158000000001
170767,52.63158000000001
170800,52.63158000000001
170833,52.63158000000001
170867,52.63158000000001
170900,52.63158000000001
170933,52.63158000000001
170967,52.63158000000001
171000,52.63158000000001
171033,52.63158000000001
171067,52.63158000000001
171100,52.63158000000001
171133,52.63158000000001
171167,52.63158000000001
171200,52.63158000000001
171233,52.63158000000001
171267,52.63158000000001
171300,52.63158000000001
171333,52.63158000000001
171367,52.63158000000001
171400,52.63158000000001
171433,52.63158000000001
171467,52.63158000000001
171500,52.63158000000001
171533,52.63158000000001
171567,52.63158000000001
171600,52.63158000000001
171633,52.63158000000001
171667,52.63158000000001
171700,52.63158000000001
171733,52.63158000000001
171767,51.42857
171800,51.06383
171833,51.13636
171867,50.84746
171900,50.84746
171933,50.84746
171967,50.84746
172000,50.84746
172033,50.84746
172067,50.84746
172100,50.84746
172133,50.84746
172167,50.84746
172200,50.84746
172233,50.27933
172267,50.27933
172300,50.27933
172333,50.27933
172367,49.72376
172400,49.72376
172433,49.72376
172467,49.72376
172500,49.72376
172533,49.72376
172567,49.72376
172600,49.72376
172633,49.72376
172667,49.72376
172700,49.72376
172733,49.72376
172767,48.32215
172800,48.32215
172833,48.32215
172867,48.32215
172900,48.32215
172933,48.32215
172967,48.32215
173000,48.32215
173033,48.32215
173067,48.32215
173100,48.32215
173133,48.32215
173167,48.32215
173200,48.32215
173233,48.12834
173267,48.12834
173300,48.12834
173333,48.12834
173367,48.12834
173400,47.87234
173433,47.87234
173467,47.87234
173500,47.87234
173533,47.87234
173567,47.87234
173600,47.87234
173633,47.87234
173667,47.87234
173700,47.87234
173733,47.87234
173767,47.87234
173800,47.87234
173833,48.0
173867,48.0
173900,48.0
173933,48.0
173967,48.0
174000,48.0
174033,48.0
174067,48.0
174100,48.0
174133,48.0
174167,48.0
174200,48.0
174233,48.0
174267,48.0
174300,48.0
174333,48.0
174367,49.18033
174400,49.18033
174433,49.18033
174467,49.18033
174500,49.18033
174533,49.18033
174567,49.18033
174600,49.18033
174633,49.18033
174667,49.18033
174700,49.18033
174733,49.18033
174767,49.18033
174800,49.18033
174833,49.18033
174867,49.18033
174900,49.18033
174933,49.18033
174967,49.18033
175000,49.18033
175033,49.18033
175067,49.18033
175100,47.68212
175133,47.68212
175167,47.68212
175200,47.68212
175233,47.68212
175267,47.68212
175300,50.27933
175333,50.27933
175367,50.27933
175400,50.27933
175433,50.27933
175467,50.27933
175500,50.27933
175533,50.27933
175567,50.27933
175600,50.27933
175633,50.27933
175667,50.27933
175700,50.27933
175733,50.27933
175767,50.27933
175800,50.27933
175833,50.27933
175867,50.27933
175900,50.27933
175933,50.27933
175967,50.27933
176000,50.27933
176033,50.27933
176067,50.27933
176100,50.27933
176133,50.27933
176167,51.42857
176200,51.42857
176233,51.42857
176267,51.42857
176300,52.94118
176333,52.94118
176367,52.94118
176400,52.94118
176433,53.25444
176467,53.25444
176500,53.25444
176533,53.25444
176567,53.25444
176600,53.25444
176633,53.25444
176667,53.25444
176700,53.25444
176733,52.94118
176767,52.94118
176800,52.94118
176833,52.94118
176867,52.94118
176900,52.94118
176933,52.94118
176967,52.94118
177000,52.94118
177033,52.94118
177067,52.94118
177100,52.94118
177133,52.94118
177167,52.94118
177200,52.94118
177233,52.94118
177267,52.94118
177300,52.94118
177333,52.94118
177367,52.94118
177400,52.94118
177433,52.94118
177467,55.38462
177500,55.38462
177533,55.38462
177567,55.38462
177600,55.38462
177633,55.38462
177667,55.38462
177700,60.40268
177733,60.40268
177767,60.40268
177800,60.40268
177833,60.40268
177867,60.40268
177900,60.40268
177933,60.40268
177967,60.40268
178000,60.40268
178033,60.40268
178067,59.01639
178100,59.01639
178133,59.01639
178167,59.01639
178200,59.01639
178233,59.01639
178267,59.01639
178300,59.01639
178333,59.01639
178367,59.01639
178400,59.01639
178433,59.01639
178467,59.01639
178500,59.01639
178533,59.01639
178567,59.01639
178600,58.69565
178633,58.69565
178667,58.69565
178700,58.69565
178733,58.69565
178767,58.69565
178800,62.06896999999999
178833,62.06896999999999
178867,62.06896999999999
178900,62.06896999999999
178933,62.06896999999999
178967,62.06896999999999
179000,62.06896999999999
179033,62.06896999999999
179067,62.06896999999999
179100,62.06896999999999
179133,62.06896999999999
179167,62.06896999999999
179200,62.06896999999999
179233,62.06896999999999
179267,60.0
179300,60.0
179333,60.0
179367,60.0
179400,60.0
179433,60.0
179467,60.0
179500,60.0
179533,60.0
179567,60.0
179600,60.0
179633,60.0
179667,60.0
179700,60.0
179733,60.0
179767,60.0
179800,60.0
179833,60.0
179867,60.0
179900,60.0
179933,60.0
179967,60.0
180000,60.0
180033,60.0
180067,60.0
180100,61.22449
180133,61.22449
180167,61.22449
180200,61.22449
180233,61.22449
180267,61.22449
180300,61.22449
180333,61.22449
180367,61.22449
180400,61.22449
180433,61.22449
180467,61.22449
180500,61.22449
180533,61.22449
180567,61.22449
180600,61.22449
180633,61.22449
180667,61.22449
180700,61.22449
180733,61.22449
180767,61.22449
180800,61.22449
180833,61.22449
180867,61.22449
180900,61.22449
180933,61.22449
180967,61.22449
181000,61.22449
181033,54.0
181067,54.0
181100,54.0
181133,54.0
181167,54.0
181200,52.32558
181233,52.32558
181267,52.32558
181300,52.32558
181333,52.32558
181367,52.32558
181400,52.32558
181433,52.32558
181467,52.32558
181500,52.32558
181533,52.32558
181567,52.32558
181600,52.32558
181633,52.32558
181667,52.32558
181700,52.32558
181733,52.32558
181767,52.32558
181800,52.32558
181833,52.32558
181867,52.32558
181900,52.32558
181933,52.32558
181967,52.32558
182000,52.32558
182033,41.86047
182067,41.86047
182100,41.86047
182133,40.90909
182167,40.90909
182200,40.67797
182233,40.67797
182267,40.67797
182300,40.67797
182333,40.67797
182367,40.67797
182400,40.67797
182433,40.67797
182467,40.67797
182500,40.67797
182533,40.67797
182567,40.67797
182600,40.67797
182633,40.67797
182667,40.67797
182700,40.67797
182733,40.67797
182767,40.67797
182800,40.67797
182833,40.67797
182867,40.67797
182900,40.67797
182933,40.67797
182967,40.67797
183000,40.67797
183033,40.67797
183067,40.67797
183100,44.26229
183133,44.26229
183167,44.26229
183200,44.26229
183233,46.75325
183267,46.75325
183300,46.75325
183333,46.75325
183367,46.75325
183400,46.75325
183433,46.45161
183467,46.45161
183500,46.45161
183533,46.45161
183567,46.45161
183600,46.45161
183633,46.45161
183667,46.45161
183700,46.45161
183733,46.45161
183767,46.45161
183800,46.45161
183833,46.45161
183867,46.45161
183900,46.45161
183933,46.45161
183967,46.45161
184000,46.45161
184033,46.45161
184067,46.45161
184100,46.45161
184133,46.45161
184167,46.45161
184200,46.45161
184233,46.45161
184267,46.45161
184300,46.45161
184333,46.45161
184367,46.45161
184400,46.45161
184433,46.45161
184467,46.45161
184500,46.45161
184533,46.45161
184567,46.45161
184600,46.45161
184633,46.45161
184667,46.45161
184700,46.45161
184733,46.45161
184767,46.45161
184800,46.45161
184833,46.45161
184867,46.45161
184900,46.45161
184933,45.0
184967,45.0
185000,45.0
185033,45.0
185067,45.0
185100,45.0
185133,45.0
185167,45.0
185200,45.0
185233,45.0
185267,45.0
185300,45.0
185333,45.0
185367,45.0
185400,45.0
185433,45.0
185467,45.0
185500,45.0
185533,45.0
185567,45.0
185600,45.0
185633,45.0
185667,45.0
185700,45.0
185733,45.0
185767,45.0
185800,45.0
185833,45.0
185867,36.36364
185900,36.36364
185933,36.36364
185967,36.36364
186000,36.36364
186033,36.36364
186067,36.36364
186100,36.7347
186133,36.7347
186167,36.7347
186200,36.7347
186233,36.7347
186267,36.7347
186300,36.7347
186333,48.97959
186367,48.97959
186400,48.97959
186433,48.97959
186467,48.97959
186500,48.97959
186533,48.97959
186567,48.97959
186600,48.97959
186633,48.97959
186667,48.97959
186700,48.97959
186733,48.97959
186767,48.97959
186800,48.97959
186833,48.97959
186867,48.97959
186900,48.97959
186933,48.97959
186967,48.97959
187000,48.97959
187033,48.97959
187067,48.97959
187100,48.97959
187133,48.97959
187167,48.97959
187200,48.97959
187233,48.97959
187267,48.97959
187300,48.97959
187333,48.97959
187367,48.97959
187400,48.97959
187433,48.97959
187467,48.97959
187500,48.97959
187533,48.97959
187567,48.97959
187600,48.97959
187633,48.97959
187667,48.97959
187700,48.97959
187733,48.97959
187767,48.97959
187800,48.97959
187833,48.97959
187867,48.97959
187900,48.97959
187933,48.97959
187967,48.97959
188000,48.97959
188033,48.97959
188067,48.97959
188100,48.97959
188133,48.97959
188167,48.97959
188200,48.97959
188233,48.97959
188267,48.97959
188300,48.97959
188333,48.97959
188367,48.97959
188400,48.97959
188433,48.97959
188467,48.97959
188500,48.97959
188533,48.97959
188567,48.97959
188600,48.97959
188633,48.97959
188667,48.97959
188700,48.97959
188733,48.97959
188767,48.97959
188800,48.97959
188833,48.97959
188867,48.97959
188900,48.97959
188933,48.97959
188967,48.97959
189000,48.97959
189033,48.97959
189067,48.97959
189100,48.97959
189133,48.97959
189167,48.97959
189200,48.97959
189233,48.97959
189267,48.97959
189300,48.97959
189333,48.97959
189367,48.97959
189400,48.97959
189433,48.97959
189467,48.97959
189500,48.97959
189533,48.97959
189567,48.97959
189600,48.97959
189633,48.97959
189667,48.97959
189700,48.97959
189733,48.97959
189767,48.97959
189800,48.97959
189833,48.97959
189867,48.97959
189900,48.97959
189933,48.97959
189967,48.97959
190000,48.97959
190033,48.97959
190067,48.97959
190100,48.97959
190133,48.97959
190167,48.97959
190200,48.97959
190233,48.97959
190267,48.97959
190300,48.97959
190333,48.97959
190367,48.97959
190400,48.97959
190433,48.97959
190467,48.97959
190500,48.97959
190533,48.97959
190567,48.97959
190600,48.97959
190633,48.97959
190667,48.97959
190700,48.97959
190733,48.97959
190767,48.97959
190800,48.97959
190833,48.97959
190867,48.97959
190900,48.97959
190933,48.97959
190967,48.97959
191000,48.97959
191033,48.97959
191067,48.97959
191100,48.97959
191133,48.97959
191167,48.97959
191200,48.97959
191233,48.97959
191267,48.97959
191300,48.97959
191333,48.97959
191367,48.97959
191400,48.97959
191433,48.97959
191467,48.97959
191500,48.97959
191533,48.97959
191567,48.97959
191600,48.97959
191633,48.97959
191667,48.97959
191700,48.97959
191733,48.97959
191767,48.97959
191800,48.97959
191833,48.97959
191867,48.97959
191900,48.97959
191933,48.97959
191967,48.97959
192000,48.97959
192033,48.97959
192067,48.97959
192100,48.97959
192133,48.97959
192167,48.97959
192200,48.97959
192233,48.97959
192267,48.97959
192300,48.97959
192333,48.97959
192367,48.97959
192400,48.97959
192433,48.97959
192467,48.97959
192500,48.97959
192533,48.97959
192567,48.97959
192600,48.97959
192633,48.97959
192667,48.97959
192700,48.97959
192733,48.97959
192767,48.97959
192800,48.97959
192833,48.97959
192867,48.97959
192900,48.97959
192933,48.97959
192967,48.97959
193000,48.97959
193033,48.97959
193067,48.97959
193100,48.97959
193133,48.97959
193167,48.97959
193200,48.97959
193233,48.97959
193267,48.97959
193300,48.97959
193333,48.97959
193367,48.97959
193400,48.97959
193433,48.97959
193467,48.97959
193500,48.97959
193533,48.97959
193567,48.97959
193600,48.97959
193633,48.97959
193667,48.97959
193700,48.97959
193733,48.97959
193767,48.97959
193800,48.97959
193833,48.97959
193867,48.97959
193900,48.97959
193933,48.97959
193967,48.97959
194000,48.97959
194033,48.97959
194067,48.97959
194100,48.97959
194133,48.97959
194167,48.97959
194200,48.97959
194233,48.97959
194267,48.97959
194300,48.97959
194333,48.97959
194367,48.97959
194400,48.97959
194433,48.97959
