B,G,R,Time[ms]
130.22408963585434,97.03651960784313,71.3609943977591,0.0
130.477651275564,97.30975472626328,71.4449715370019,33.333333333333336
130.8551796485707,97.31097123874464,71.84185680566482,66.66666666666667
130.36917562724014,97.22883119153772,71.39471981816592,100.0
130.90842815881965,97.30855691269095,71.97652851724257,133.33333333333334
130.3630894590846,97.2015429958391,71.51992024965325,166.66666666666666
130.4484158518467,97.04320561102858,71.76227412500431,200.0
130.45097260131985,97.05363991293233,71.77315758559928,233.33333333333331
130.00185506241328,97.00015603328708,71.35201109570042,266.6666666666667
130.08843243616764,96.75297999516293,71.57879279964068,300.0
130.08276947285606,97.04474167322321,71.33298365241717,333.3333333333333
130.8298692117356,97.19802050194416,71.97537999293037,366.6666666666666
131.07664233576642,97.47216928553448,71.71112149868756,400.0
131.06851605479844,97.48435870698644,71.71144511164647,433.33333333333337
131.68833309185743,97.67069327731093,72.30337221095336,466.66666666666674
131.36725000913376,97.73924957071353,71.82839501662345,500.0
131.75469380271358,97.87955628896223,72.13535020168683,533.3333333333334
131.2891079657065,97.68344623744746,71.76124910502837,566.6666666666666
131.49968675142804,97.7283950617284,71.93576561636263,600.0
131.46567898514806,97.69354335334398,71.90000183583926,633.3333333333333
131.07400268032532,97.49549301463163,71.65381579188927,666.6666666666666
131.09717097170972,97.40983275504398,71.65372399992657,700.0
130.98940959409595,97.294815498155,71.49555350553506,733.3333333333333
131.22317343173432,97.3271033210332,71.59874538745387,766.6666666666667
128.87695064838456,96.90975028319271,71.52907163507871,800.0
128.86861548345647,96.88758516915482,71.4914534972188,833.3333333333335
129.21268030287456,96.81675060814743,71.43545071435912,866.6666666666667
129.0008748156026,96.7789804109918,71.16281862156507,900.0
129.17619815431058,96.83865655768636,71.43682459089506,933.3333333333336
128.85757658924834,96.8257401626128,71.15353871487874,966.6666666666664
128.64409403279578,96.8020854596176,71.27294685990337,1000.0
128.66942233108796,96.78963393889907,71.2769953051643,1033.3333333333335
128.53560250391234,96.83665033680342,71.20900523916445,1066.6666666666667
129.04186462852027,97.04255319148935,71.43160848309577,1100.0
128.7913283311063,97.03551238565115,71.40766437112413,1133.3333333333333
128.86841336152798,97.14351780219023,71.57928034796363,1166.6666666666667
129.09552750506467,97.36780773293164,71.8172735615466,1200.0
129.07734663134383,97.34834554049141,71.79646078991568,1233.3333333333335
129.376283439268,97.20484389187678,72.04342739400713,1266.6666666666665
128.6980243450557,97.21846484165323,71.76321576368328,1300.0
128.96566064221793,96.98447095981753,71.92339006843306,1333.3333333333333
128.57150468883205,96.76935919295255,71.4196504688832,1366.6666666666667
128.58611765545797,96.58879488827014,71.64658742057544,1400.0
128.30680585442192,96.38082196653092,71.48290089096761,1433.333333333333
127.86355691500984,96.07177190299323,70.65155487582842,1466.6666666666665
128.00651319483435,95.88676773348308,70.36020962006364,1500.0
128.0327644010972,95.81549070405364,70.2035012191405,1533.3333333333335
128.3956314887224,95.84908604118112,70.68332145539995,1566.666666666667
128.0986668221393,95.93394356343285,70.35556592039799,1600.0
128.04219138681594,95.92667521766172,70.31763059701493,1633.333333333333
127.99055785531245,95.57890794401736,70.36041789867929,1666.666666666667
127.49098144296913,95.31380979043352,69.7904335306351,1700.0
127.7099586318232,95.177641004944,69.98018363434565,1733.3333333333335
127.17159667275308,95.06110772976265,69.49973625481843,1766.6666666666665
127.47395009129644,95.24514100223169,69.95244471495232,1800.0
127.48078717792656,95.232095759789,69.97261107729763,1833.333333333333
126.81391763035101,95.1095556908095,69.39373097991479,1866.666666666667
126.90194224642893,94.99017572705783,69.46731065666428,1900.0
126.00065520065522,94.78595413595413,68.82235872235873,1933.333333333333
126.38479848969877,94.78445374702456,69.31827136173357,1966.6666666666665
125.50271883560244,94.38133202502148,68.72032789566214,2000.0
125.49376179922842,94.38422391857506,68.6779118443733,2033.333333333333
125.28572603021273,93.87014695303672,68.55159798581852,2066.666666666667
125.170345170926,93.90549286425491,68.21125124460671,2100.0
124.87408925318762,93.42484268918696,68.1344386487829,2133.333333333333
124.40958673564795,93.36134139500092,67.77990400797856,2166.6666666666665
125.03676839464882,93.58275501672243,68.27972408026756,2200.0
125.06609531772574,93.56467391304348,68.29458612040132,2233.333333333333
125.13963793682795,93.99338457661293,68.29000756048387,2266.6666666666665
124.66916536597387,93.64144007229116,68.54072537583177,2300.0
123.81370410759723,93.53871319520177,68.15481239145362,2333.333333333333
123.61896722939423,93.38957298907646,68.49880834160875,2366.6666666666665
123.05710558008828,93.18077077478924,67.62699718988358,2400.0
122.92975940900469,93.26319257262656,67.59516821403614,2433.333333333333
123.30479123340264,93.26555751079826,67.94276915693489,2466.666666666667
122.72641435048295,93.28742361521783,67.80307510348906,2500.0
123.230585898709,93.40667328699104,68.15314796425024,2533.333333333333
122.66085849544494,93.17364840673113,67.68824839877472,2566.666666666667
122.89216687696528,92.96717338620842,67.81453664203168,2600.0
122.88784073384205,92.93344549259949,67.8771054897955,2633.333333333333
122.28188554629291,92.72653135193909,67.3054448068946,2666.6666666666665
122.5068583408206,92.73425177198764,67.85684336627733,2700.0
122.03091403221295,92.74847128412134,67.61190599896089,2733.333333333333
122.63571428571429,92.62627187627187,67.85148555148555,2766.666666666666
122.44684974435093,92.69231403595579,67.4572818736599,2800.0
122.40557479795478,92.6982516905822,67.44233465281214,2833.333333333333
122.72582765135958,92.692228702867,67.80863386182536,2866.666666666666
121.99504470092705,92.52877170524229,67.00747424276837,2900.0
122.2331183767354,92.66592047975028,67.38579232728169,2933.333333333333
122.11959540687307,92.62666335032957,67.1544169464826,2966.666666666667
122.24754105192964,92.65114195215469,67.17462699008085,3000.0
122.2364549470701,92.6451404517796,67.14980828540467,3033.333333333333
122.77622040645296,92.97125497590616,67.18726168028493,3066.666666666667
122.65749159297545,92.77213849794495,67.38105617137875,3100.0
122.88096732354296,93.06031128404669,67.31645119451069,3133.333333333333
122.86391782770596,93.0592862223338,67.3855696414376,3166.666666666666
123.15192368839428,93.21318494965557,67.37051404345522,3200.0
123.13606783253842,93.19688394276629,67.35947005829358,3233.333333333333
123.25189684569479,93.07679028132992,67.41283034953112,3266.666666666666
122.99763513513514,92.96558277027029,67.26140202702703,3300.0
122.86320328110209,92.69576190976969,67.27458197497107,3333.333333333333
122.61268272163211,92.56098433063411,67.00607845199285,3366.666666666666
122.70255547376169,92.56552739509935,67.12678515090965,3400.0
122.70616223989174,92.46758162747422,67.01676958213501,3433.333333333333
122.51347144810178,92.44017246818802,66.91835103586078,3466.666666666667
122.86345016891892,92.62829391891891,67.11932010135135,3500.0
122.69201858108109,92.5790329391892,67.08904138513513,3533.333333333333
122.81919341216215,92.57185388513514,67.19780405405406,3566.666666666667
122.08837626073185,92.37686504959572,66.8492539801617,3600.0
122.08985579728264,92.35967325164623,66.84742018838043,3633.333333333334
122.40475293920755,92.57545709384544,67.02715367557843,3666.666666666666
122.46372536713943,92.61936739048576,67.04093970963558,3700.0
122.32237144889335,92.43311995314005,67.01884858374126,3733.333333333334
122.50361380347591,92.61587149064172,67.13180982620321,3766.666666666666
122.6185730040159,92.71316506793731,67.38099003308433,3800.0
122.62194386067127,92.71755550469216,67.36904638049063,3833.333333333334
121.9836877668615,92.49954400364796,66.95135348008125,3866.666666666666
122.06867218631923,92.50568827039416,67.11636693989635,3900.0
122.01744678215269,92.41729812318049,66.96141060846944,3933.333333333333
121.99644870233108,92.25061425061425,66.93756323168088,3966.666666666667
121.84711685942877,92.1731127969158,66.77869667951747,4000.0
121.85207063798036,92.15414749409277,66.75935828877003,4033.333333333333
121.85982257596486,92.09134436015421,66.76474733656676,4066.666666666666
121.93876825237436,92.01673570143507,66.63055939082047,4100.0
121.93198299574892,92.00087521880472,66.63924314411936,4133.333333333334
121.82047595232142,91.98101608735516,66.61802950737685,4166.666666666667
121.93196215720594,91.87886554972076,66.63159539884971,4200.0
122.3040908612893,92.0539278578189,66.73458828478283,4233.333333333333
122.20414344305394,92.04955305500052,66.72047533915236,4266.666666666667
122.37096774193549,92.10685483870968,66.8578839045699,4300.0
121.82685254646995,91.93671334500291,66.56209885804785,4333.333333333333
121.86136117362673,91.94554888722179,66.61223639243144,4366.666666666666
121.79754639432058,92.01434383692448,66.61960808735003,4400.0
121.76090837381159,92.01585917714952,66.60603229958069,4433.333333333334
121.79561456032043,92.11880329527388,66.79949621126092,4466.666666666667
121.70515592515592,92.03896049896048,66.58592515592515,4500.0
121.42448399456188,91.88425410950441,66.62262596300417,4533.333333333333
121.58861698183166,92.07207596918389,66.64911630206403,4566.666666666666
121.63515016685206,92.10703250525276,66.69544349688954,4600.0
121.63309026490343,92.12324393358877,66.67834631071561,4633.333333333334
121.5324441166226,92.11852807998852,66.73239494334828,4666.666666666667
121.50822627901735,92.0664453869322,66.71284856680394,4700.0
121.50096668037844,91.98257918552036,66.64251336898397,4733.333333333333
121.7486013986014,91.90898807075277,66.74066227889757,4766.666666666667
121.85615179732828,92.04459769165652,66.65899283546342,4800.0
121.78604288178757,92.09050768093321,66.7487883019798,4833.333333333333
121.63237350884407,91.8713698066639,66.65493624023036,4866.666666666666
121.64981489099137,91.96273138626076,66.67984368572603,4900.0
121.82591526120936,92.00473056355408,66.81639243109831,4933.333333333334
121.75950226244343,92.04304812834222,66.69621554915672,4966.666666666667
121.88218839983543,92.15314685314684,66.80084327437268,5000.0
121.8883587001234,92.13599341834637,66.83157136980665,5033.333333333333
121.46825250476364,91.91138566189275,66.57995779293954,5066.666666666666
121.56287008011145,91.98096584506321,66.6423463847399,5100.0
121.46304833323087,92.04140799475485,66.59479173069437,5133.333333333334
121.61472739566044,92.08019341487899,66.71649558464972,5166.666666666667
121.58705145635072,92.01785934989496,66.5643101388374,5200.0
121.58649528282456,92.02047542536975,66.56309479668768,5233.333333333333
121.79333003749022,92.08167511226463,66.89142256828575,5266.666666666667
121.62219338359495,92.11080212581881,66.61556049932024,5300.0
121.7542360726945,92.33093613620994,66.91558587907471,5333.333333333333
121.76603633667038,92.27114489350308,66.82534091377251,5366.666666666666
121.79636174636171,92.21363825363821,66.63891891891892,5400.0
121.76960297766749,92.28966087675764,66.72481389578164,5433.333333333334
121.66034553681612,92.29265734265734,66.72285067873302,5466.666666666667
121.63784450843274,92.21096256684493,66.73177704648293,5500.0
121.55647229114972,92.02549627791565,66.49361042183621,5533.333333333332
121.60955334987592,91.99739454094292,66.55117866004963,5566.666666666666
121.42980255039078,91.97848621966268,66.53356643356642,5600.0
121.43484162895928,91.94520773344307,66.53630193336075,5633.333333333334
121.52194570135744,91.9447346770876,66.569107363225,5666.666666666668
121.50847808105871,91.92034739454094,66.46379239040529,5700.0
121.62805429864252,91.99925956396544,66.72723159193747,5733.333333333332
121.51397849462366,91.90219189412736,66.41352357320099,5766.666666666668
121.64598842018196,91.97799834574027,66.54954507857735,5800.0
121.63035566583952,91.96571546732835,66.55417700578991,5833.333333333332
121.5399917287014,91.96087675765095,66.47402812241522,5866.666666666666
121.69548856548857,91.98351351351351,66.49051975051975,5900.0
121.56564907510405,92.08383800931077,66.59627981708071,5933.333333333334
121.63166893255881,92.13576813743666,66.67072467350555,5966.666666666668
121.4721707246735,92.06175586042104,66.5930457710213,6000.0
121.43412433568164,92.03545091253656,66.5953734602233,6033.333333333332
121.49553001277141,92.11350059737156,66.59405512297614,6066.666666666666
121.42390722201624,92.09267498867054,66.50953734602233,6100.0
121.70121056493029,92.47572756175104,66.87335941958098,6133.333333333334
121.79657902176987,92.7603093824468,67.08687749909124,6166.666666666668
121.59459728867624,92.6743620414673,67.21646730462521,6200.0
121.64075276575278,92.5760582010582,67.10012826679494,6233.333333333332
121.35766760337214,92.41382978723404,66.75576073865918,6266.666666666668
121.62541524914947,92.64010406243746,67.11951170702422,6300.0
121.38595157094255,92.4824494696818,66.94980988593156,6333.333333333332
121.43907266044673,92.31592552203242,66.86713922210106,6366.666666666666
121.35216367915987,92.36361075904804,66.88790311223771,6400.0
121.33882551753271,92.3413000181061,66.88862735630796,6433.333333333334
121.36836620169954,92.34624017957351,66.92847122013791,6466.666666666668
121.26901956068623,92.30990460157128,66.83449575116242,6500.0
121.09389803291849,92.08321959052587,66.64931754315536,6533.333333333332
121.28699211340721,92.3490066886293,66.89136468004392,6566.666666666666
121.01383778595422,92.1189809630459,66.60324348104302,6600.0
121.04807230843063,92.11454167333223,66.61966085426333,6633.333333333334
121.04329307310827,92.09976403775394,66.6366181410974,6666.666666666668
121.54548374146928,92.38952228020877,66.97452830188679,6700.0
121.2618827780008,92.29773183460459,66.72238057005218,6733.333333333332
121.34093169431515,92.42873055655012,67.07383538210604,6766.666666666668
121.4386283043198,92.43737911025144,66.87788120567376,6800.0
121.39341553836235,92.44983075435205,66.86712201805287,6833.333333333332
121.0625899856023,92.28039513677813,66.74804031354982,6866.666666666666
121.36156162183865,92.49648735447613,66.8645724608591,6900.0
121.37577278201523,92.56838619028505,66.91391007627459,6933.333333333334
121.37788120567377,92.57654335912315,66.82908204384269,6966.666666666668
121.37276194299477,92.6713970293055,66.90770774789242,7000.0
121.3619429947812,92.68538739462065,66.92960658370133,7033.333333333332
121.3006623845845,92.70788839823365,66.86220393416299,7066.666666666666
121.07092865141577,92.48382258838585,66.79647256438969,7100.0
121.28883982336413,92.63693295865114,66.86101967081494,7133.333333333334
121.38131272581293,92.48524688879972,67.00718586912886,7166.666666666668
121.18059012444799,92.39608590927338,66.74540345242875,7200.0
121.13396226415094,92.36471296668005,66.69771176234444,7233.333333333332
121.19006423123243,92.36272581292653,66.69247290244881,7266.666666666668
121.16995257794369,92.30529714458682,66.56175966098274,7300.0
121.37046264786908,92.34500081024143,66.73833252309188,7333.333333333332
121.03523357885176,92.14311371203712,66.51100797094138,7366.666666666666
121.08126721763084,92.10427807486631,66.51596175660347,7400.0
121.08483228001944,92.10885593906984,66.5174607032896,7433.333333333334
121.03978285529087,92.1188624210015,66.46965645762437,7466.666666666668
121.06682466374978,92.16547156052505,66.50504375303841,7500.0
121.0394385026738,92.17203451628583,66.50463863231244,7533.333333333332
121.13928050559065,92.21155404310484,66.56599416626155,7566.666666666666
121.07978723404257,92.28767730496456,66.60527482269504,7600.0
121.05742263056094,92.27542714377822,66.59260154738878,7633.333333333334
121.25439555987684,92.22372792092042,66.68574785286016,7666.666666666668
120.78319039451117,92.11496317223286,66.48023408334174,7700.0
121.6139087252729,92.52056143806944,66.84000246244767,7733.333333333332
121.62025938902204,92.65580756858648,66.8817587641117,7766.666666666668
121.76350265727352,92.69838915667614,66.91204218679191,7800.0
121.76622172784576,92.68825443908872,66.90470893585466,7833.333333333332
121.63753965311251,92.70640217525646,66.85310839204054,7866.666666666666
121.41317304159693,92.636261583051,66.85649263175083,7900.0
121.26133812303549,92.53635138996613,66.74478507572356,7933.333333333334
121.31464187104108,92.54762871528341,66.884562286828,7966.666666666668
121.15629751261936,92.53477670335907,66.86245413448478,8000.0
121.14396215689459,92.48162660386551,66.81801201884035,8033.333333333332
121.33969465648858,92.47238915056032,66.9256334253695,8066.666666666666
121.30088856281078,92.49413059427731,66.81293307247086,8100.0
121.9404255319149,92.71272504091654,67.20869476268413,8133.333333333332
121.73635433715219,92.63154664484452,66.98999590834698,8166.666666666666
121.67301554828151,92.54781096563013,67.00216857610475,8200.0
121.74792266556973,92.45355820649937,66.93105717811599,8233.333333333332
121.67328849586912,92.3889027276124,66.72497612820193,8266.666666666668
121.86453273550049,92.47614896001991,66.89050110017851,8300.0
121.68675123326284,92.49792728930895,66.8517804584836,8333.333333333334
121.72093023255812,92.50839447829873,66.88202130746589,8366.666666666668
121.65715524539057,92.53506906448084,66.87514711044123,8400.0
121.68467780232487,92.54318336671278,66.90518861107097,8433.333333333334
121.43409146490585,92.46421292899649,66.92483899894025,8466.666666666666
121.53747954173487,92.57037643207858,66.93846153846154,8500.0
121.5160797260944,92.62376701720062,67.02745169968208,8533.333333333334
121.42720306513408,92.56334067009048,66.89687780223363,8566.666666666666
121.56520581064191,92.56655807568586,66.97393816460753,8600.0
121.5277573978968,92.58172332273578,67.09382897203879,8633.333333333332
121.34506375976964,92.48953105717811,66.72801316330728,8666.666666666666
121.44514106583073,92.53342758210913,66.89241297354887,8700.0
121.14251650770359,92.4451577402788,66.77946930789923,8733.333333333332
121.1883951072592,92.25647960333558,66.68561886614624,8766.666666666668
121.2421578871883,92.27469420370028,66.68565984387484,8800.0
121.22963919109962,92.26828118917368,66.67080541725572,8833.333333333334
121.28696703341733,92.20886348269714,66.67031368451246,8866.666666666668
121.14633146884668,92.11035302313192,66.5295961644846,8900.0
121.10955395742413,92.06984653840635,66.49269571987624,8933.333333333334
121.08166861310877,92.04405105824983,66.46735099473436,8966.666666666666
121.16997561825147,91.99852480177023,66.44977154916303,9000.0
121.15544901346121,91.99295183068001,66.41455119142745,9033.333333333334
121.37860962566843,92.20012340600576,66.60022624434389,9066.666666666666
121.62998345740282,92.16902398676592,66.74309346567411,9100.0
121.36309891649158,92.12209038849753,66.47383924525192,9133.333333333332
121.34412721954435,92.08214888971285,66.48922671280846,9166.666666666666
121.18043585323812,92.07816219322004,66.34970861035869,9200.0
121.15794549782484,92.07028236066652,66.37734958548798,9233.333333333332
121.49870721497169,92.26990478535663,66.75527374209965,9266.666666666668
121.31464900445644,92.135042315712,66.55376344086021,9300.0
121.83748710542605,92.38772436558695,66.7090571487518,9333.333333333334
121.66480320624807,92.35044702497171,66.5710204501079,9366.666666666668
121.7370597870598,92.4846027846028,66.65819000819,9400.0
121.73340869386496,92.44583290514849,66.62601993628611,9433.333333333334
121.62199157332235,92.4360291850786,66.58931250642277,9466.666666666666
121.68480115096085,92.44762100503544,66.68443119926009,9500.0
121.54257527489466,92.36471071832287,66.5220635083753,9533.333333333334
121.58840818004316,92.19274483609085,66.52214571986435,9566.666666666666
121.26033988533987,92.02987305487306,66.20604013104014,9600.0
121.24242112835267,91.9910595005652,66.18923029493371,9633.333333333332
121.25890663390663,91.95976658476658,66.23845208845209,9666.666666666666
121.17659705159706,91.90472972972971,66.20397215397216,9700.0
121.292840085639,91.78872282608695,66.13383152173914,9733.333333333332
121.61205609027547,91.99655658811815,66.31357865914372,9766.666666666668
121.42742602082987,91.73660935691849,66.2089188295586,9800.0
121.45490990246321,91.74161018350142,66.2613448503885,9833.333333333334
121.39918889986824,91.75640233860344,66.2473649538867,9866.666666666668
121.40890563241108,91.7762887022398,66.19365530303031,9900.0
120.96829912619387,91.58910790489736,66.05970331233489,9933.333333333334
120.41258280788573,91.36806608667892,65.9160547529731,9966.666666666666
120.0467815408992,91.167954050307,65.75906120023768,10000.0
120.06109280344141,91.19995264123764,65.75949641849361,10033.333333333334
120.2231774209634,91.06552308766331,65.72009574149797,10066.666666666666
119.97859778597788,91.0086366809614,65.53589308866061,10100.0
120.06265084272465,91.09715767427944,65.61470030916526,10133.333333333332
120.01165165165165,91.09225225225224,65.57099099099099,10166.666666666666
120.12162162162159,91.10684684684685,65.7426026026026,10200.0
120.12834834834835,91.11557557557558,65.75603603603604,10233.333333333332
120.11809809809809,91.10344344344344,65.69133133133133,10266.666666666668
120.40138651662815,91.40920325529993,65.95910780669145,10300.0
120.40677692617993,91.41716417910447,65.951956434046,10333.333333333334
120.26889714993808,91.32274053643525,66.0626174201543,10366.666666666668
120.3840675653988,91.344828277965,66.0455785588188,10400.0
120.38292408923124,91.33261113785908,66.03336141871289,10433.333333333334
120.73373265448735,91.73890386343216,66.63905360886493,10466.666666666666
121.72361198407712,91.84558977582232,66.52113974439554,10500.0
120.23231041842855,91.00215456485844,66.32004349401957,10533.333333333334
121.25954214273888,91.39516062261964,66.58366451399239,10566.666666666666
123.31543552972124,92.62236412236412,67.76280283423141,10600.0
123.47713427713428,92.60004290004292,67.64249249249251,10633.333333333332
125.62905441332859,93.81817174760724,68.72997164126197,10666.666666666666
127.19906510090073,94.62640519895108,69.5171588188348,10700.0
126.96670920612569,95.08482221439888,70.13417532124626,10733.333333333332
129.40195133149678,96.33863636363635,71.23705234159779,10766.666666666668
130.54786888290462,97.34334664314235,72.05552976135202,10800.0
130.39704998381652,97.2908401535118,72.00536366578814,10833.333333333334
131.78756983240223,98.41256983240223,73.31482774674116,10866.666666666668
132.86761229314422,99.46962174940901,74.47444444444444,10900.0
135.2858132858133,100.6495643995644,75.8455845955846,10933.333333333334
136.95172684458402,101.63916797488226,76.51109366823653,10966.666666666666
138.0809061488673,102.1844120819849,77.05407227615966,11000.0
137.99602791196995,102.18652710681695,77.05101986044016,11033.333333333336
137.4974490470274,102.81643712495705,77.32097068386688,11066.666666666664
138.32856836346082,103.43675910529421,78.02802660516012,11100.0
138.56569781407637,104.24971308084447,78.70510048842979,11133.333333333332
139.11530146528946,104.7600555155203,79.36600208183202,11166.666666666664
139.306966716076,104.9842878318286,79.30030993127609,11200.0
139.34140951354263,105.00751920226385,79.30233122220723,11233.333333333332
139.59756097560975,105.06699186991872,79.3889972899729,11266.666666666668
139.76117318435757,105.07536422390186,79.43227626246029,11300.0
139.822848583878,105.01260893246187,79.55740740740741,11333.333333333336
139.4483009708738,104.75876483279396,79.28559870550161,11366.666666666668
139.36255905196572,104.5524861878453,79.28376971735126,11400.0
139.29954359836657,104.54989724290708,79.29823578082046,11433.333333333336
138.94090799903915,104.25542477380094,78.9612192062348,11466.666666666664
139.25253505933114,104.11680151024812,78.88783710895363,11500.0
138.74887820512822,103.98282585470085,78.60619658119657,11533.333333333336
139.14088457389428,103.9037486515642,78.61556094929881,11566.666666666664
139.50583937565727,103.70983007693584,78.09069020866774,11600.0
139.49548901311786,103.71896274976477,78.05963912104943,11633.333333333332
139.56449862235954,103.37858673568785,77.90047591216498,11666.666666666664
139.49155325484958,103.30458378558905,77.69973003812865,11700.0
139.66166023382,103.2138222296806,77.67256810426805,11733.333333333332
139.13115530303028,102.90633355614972,77.29659647950089,11766.666666666668
138.85395284327325,102.77509015256588,77.17700416088766,11800.0
138.8704854368932,102.76047156726769,77.18721220527046,11833.333333333336
138.860947574993,102.61530698065602,76.90770955985423,11866.666666666668
138.63037842012358,102.59256398940866,76.90611209179171,11900.0
139.5148729946524,102.94685828877004,76.8850267379679,11933.333333333336
137.68330700368617,102.16137440758291,76.21477093206951,11966.666666666664
135.94028171894573,101.09144361786436,75.14341590612777,12000.0
135.9115168539326,101.11315117466805,75.22571501532175,12033.333333333336
137.11393146019586,100.78738292890593,74.8295019157088,12066.666666666664
136.07375197057274,100.10231213872831,74.12653704676826,12100.0
135.07775389025392,99.46693284193285,73.6945126945127,12133.333333333332
134.38834625322997,98.99299741602069,73.1590180878553,12166.666666666664
134.2328848795915,98.81698939782773,73.41623247012468,12200.0
134.16828680301734,98.83293153951836,73.39235814086113,12233.333333333332
135.77178868329312,100.13274336283186,74.37133279699651,12266.666666666668
138.81671607635096,104.19053934571177,79.71906693711968,12300.0
139.27684818983874,106.5486766048068,82.2893215698205,12333.333333333336
138.13145291389392,105.65136620286349,81.68388283928209,12366.666666666668
137.4039810735846,104.12353836950018,79.49186925545223,12400.0
138.00624355285305,104.81757967316359,80.19088984201099,12433.333333333336
133.281092521669,101.764664382181,77.88591009877041,12466.666666666664
132.8287456445993,102.58270283723243,78.44193628670979,12500.0
130.51498113666787,100.91120847024462,77.03259096994037,12533.333333333336
130.76016830294532,100.82703866960527,76.62607693848929,12566.666666666664
128.1106485539001,98.98020742039148,75.30370532671148,12600.0
128.11449508228648,98.99379199532574,75.31719252118025,12633.333333333332
128.09165464165466,99.48056758056757,75.79737854737854,12666.666666666664
127.83643550125765,98.97314648460892,75.59767636842736,12700.0
127.68555151515152,99.02247272727271,75.11958787878787,12733.333333333332
127.2611744084137,98.45393903982858,74.55745447463238,12766.666666666668
126.72650140180019,97.64701687078843,73.53939796370075,12800.0
126.70289213516304,97.65050907481186,73.54962864591019,12833.333333333336
126.74217416050085,97.63289698349459,73.44267649897307,12866.666666666668
125.97141387419164,97.09393983931021,72.95627572016461,12900.0
126.25058306532787,97.14010752952153,73.18201458277073,12933.333333333336
125.34013918863212,96.50830524503503,72.43051480394772,12966.666666666664
125.5694694884692,96.90485906804594,73.21367561924646,13000.0
125.66937404725607,96.94431211890243,73.2477372332317,13033.333333333336
124.6603078982597,97.05450691655511,73.67744310575634,13066.666666666664
125.27042396884407,97.4457647371216,74.20935121260399,13100.0
126.30875512995895,97.25978112175102,73.42460100319197,13133.333333333332
125.9123369192035,95.81474021515221,72.1623483634699,13166.666666666664
127.57977506671749,96.62895539458636,72.15869233701869,13200.0
127.5665030499428,96.6383673274876,72.10098170034311,13233.333333333332
126.88964373718996,95.97950394951984,72.06775211293554,13266.666666666668
122.04264169457541,93.31001087907164,69.70632905992022,13300.0
123.25771743020758,92.52811828919113,68.63466356478168,13333.333333333336
122.81357890148213,92.69444202266784,68.2414341761116,13366.666666666668
120.87217477656405,91.75022840119163,67.78172790466732,13400.0
120.88009930486594,91.75843098311815,67.78714995034757,13433.333333333336
121.06204624368686,92.41569996843435,67.71975615530303,13466.666666666664
120.24833113482832,91.33447255866012,66.6045888795619,13500.0
121.426644284443,92.32082760294477,67.0402880025888,13533.333333333336
121.05806055646481,91.59797463175123,66.59977495908348,13566.666666666664
119.27142269736844,90.73355263157896,65.34035773026315,13600.0
119.26994243421049,90.72775493421051,65.3221833881579,13633.333333333332
117.86842105263158,89.39951607742759,64.42693169092945,13666.666666666664
117.98491222393012,89.90753175309445,64.20008494458378,13700.0
116.60587076438141,88.73014184397164,63.549605988967706,13733.333333333332
116.22716526971844,90.2443226592163,64.7282577548535,13766.666666666668
116.13257036372907,90.28671131972644,65.23474500290071,13800.0
116.05975265017669,90.0824558303887,65.05620141342756,13833.333333333336
114.2237192982456,88.99547368421051,63.86105263157894,13866.666666666668
114.61240550706644,88.73613190665743,63.577931563378755,13900.0
114.30642342145512,88.75795644891123,63.5913444031753,13933.333333333336
114.86024587208885,89.33850674165407,64.42989761338237,13966.666666666664
115.19348334833485,89.88241224122412,64.75510351035103,14000.0
115.17863186318633,89.88329432943294,64.71728172817282,14033.333333333336
115.88848796311486,89.8728700818253,65.15351812366738,14066.666666666664
115.91762182814304,90.4268490484429,65.31199538638985,14100.0
115.47954424069788,90.26396653017623,65.2803275769984,14133.333333333332
115.40151326330782,90.2460566138508,65.19512195121952,14166.666666666664
115.5310155210643,90.32104656319292,65.34839911308204,14200.0
115.8758589994659,90.54874488160941,65.54361758946057,14233.333333333332
115.42300088261251,90.3748984995587,65.37645189761695,14266.666666666668
115.67058410188845,90.61507246376812,65.66306543697847,14300.0
115.6876240667545,90.6949319279754,65.65087395696091,14333.333333333336
115.8505251913833,90.51153640733489,65.46957450596403,14366.666666666668
115.7702621003592,90.57126853728796,65.41518190547318,14400.0
115.7927735694726,90.56547174508341,65.43980938155696,14433.333333333336
114.99498157571504,89.93198806808212,65.04302509212143,14466.666666666664
114.84180976401892,89.99911895795185,65.13844452890164,14500.0
114.47644103469351,89.73239866929188,64.98538597325006,14533.333333333336
114.16708719851576,88.02521335807049,63.37795918367346,14566.666666666664
116.99943014705882,90.3046875,65.77586397058823,14600.0
117.03374999999998,90.3244669117647,65.78770220588235,14633.333333333332
116.83857229006482,89.90867631539274,65.61382481531734,14666.666666666664
117.40465218345402,89.8807695121059,66.3524248409041,14700.0
118.79473933200869,90.79612073043806,67.07381966127353,14733.333333333332
120.64379612546128,91.50822570725708,68.10739544895449,14766.666666666668
124.02978279030913,93.07339181286552,69.12222222222222,14800.0
124.04732664995821,93.11248955722641,69.13521303258146,14833.333333333336
126.13470610735688,94.05854477453356,70.65678524374177,14866.666666666668
128.89396161023728,95.88178707900116,72.01688438638584,14900.0
130.10050952591936,96.78145768719541,73.37636242800177,14933.333333333336
131.65713382127043,98.54626366675707,74.7000090358724,14966.666666666664
135.110766642634,100.1292477769767,76.49348714251383,15000.0
135.12893535207883,100.1776976688296,76.55549146839702,15033.333333333336
137.50195272874822,101.99497869750456,77.49558734023128,15066.666666666664
138.66301512780387,103.50321683185531,79.72029709118911,15100.0
140.2467764279625,103.78577898550724,78.88352514919009,15133.333333333332
142.0398886827458,104.69938884644766,80.05333951762523,15166.666666666664
141.73571918277798,105.09888934594817,80.027807486631,15200.0
141.7195118606883,105.18327163033042,79.99169066227891,15233.333333333332
142.30117024240738,105.58372805795486,80.32206742825298,15266.666666666668
142.74167798913044,105.88074615036231,80.39835258152173,15300.0
143.060991575592,105.80330714936248,80.73187044626593,15333.333333333336
142.5257855191257,105.8074055100182,80.22455601092895,15366.666666666668
142.54393353061693,105.79635215114956,80.17667311632142,15400.0
142.5446448895971,105.7967220578193,80.18310380150241,15433.333333333336
141.82031425996848,105.48499098896148,79.84078621311107,15466.666666666664
140.88513736263738,105.57271978021978,80.17887362637363,15500.0
140.02223478424722,105.2312040700961,79.75625185065545,15533.333333333336
139.43174686882006,104.90475939353986,79.67499011206328,15566.666666666664
139.08641489640706,104.64946236559143,79.3986624704957,15600.0
139.04820351429322,104.65019669551536,79.37626540781537,15633.333333333332
139.23454185893215,104.38950560316414,79.3286222808174,15666.666666666664
139.58894061603422,104.27315541601256,78.83018459373139,15700.0
139.51545613798677,103.6940843552082,78.83794636841395,15733.333333333332
138.5901459951424,103.25179491285664,78.10785491232285,15766.666666666668
138.20169375263822,102.85180983537356,77.9583157450401,15800.0
138.33137036447556,102.92763541832458,77.9421985251207,15833.333333333336
138.24788816020296,102.48149947372684,77.02939033276658,15866.666666666668
137.77680823680822,102.7487516087516,77.75433719433721,15900.0
138.05331113103625,103.3717433072883,78.11856026642756,15933.333333333336
137.5259026687598,102.85572492024104,77.6838760318023,15966.666666666664
134.68502415458937,101.22608695652174,76.01340579710144,16000.0
134.6342512077295,101.23584541062802,76.02004830917875,16033.333333333336
129.40810921875715,96.97201041048358,72.15866855394732,16066.666666666664
129.71110011078895,96.90219927869316,71.71317445725197,16100.000000000002
131.88084232152028,97.77807126959671,72.97280309144715,16133.333333333332
131.63338217338216,98.32520146520146,73.18175824175825,16166.666666666668
135.52992480433784,101.3339045475472,76.36357358432656,16200.0
135.53084556754823,101.3311934114277,76.41352498849047,16233.333333333336
132.57739938080493,100.12580470784805,75.03408029878621,16266.666666666664
131.25840818363272,98.78086327345312,74.16768962075848,16300.0
129.1453764619883,99.63374908625731,74.99127375730994,16333.333333333332
128.9484705882353,99.01717647058823,74.29395294117647,16366.666666666668
128.50096698439012,99.37666344338535,74.65672054151126,16400.0
128.72336638698195,99.50382543975219,74.69218500797447,16433.333333333332
127.73891786179922,99.84500217296828,75.53780964797916,16466.666666666664
123.30449166560629,96.32489290410143,72.34164651991348,16500.0
121.75966314891802,94.35537789148277,70.78388231531821,16533.333333333336
121.97355769230772,94.38649475524477,70.37373251748252,16566.666666666668
121.81011560693642,93.88939528679414,69.82407736771897,16600.0
122.02013078313657,94.02316602316601,69.93197491463387,16633.333333333332
121.13286127952223,93.1279522215184,68.8176183150846,16666.666666666668
121.85983455882351,93.4104779411765,69.35098805147061,16700.0
122.03774766313343,94.09897580392685,69.96556196609865,16733.333333333336
124.13082114735657,95.51880764904386,71.93473565804274,16766.666666666664
123.68689812179852,95.32416619237335,71.22927717700627,16800.0
123.66832100170744,95.32198064883323,71.24168468981219,16833.333333333332
124.14264367816091,95.44333333333331,71.50298850574713,16866.666666666668
123.81903448275862,95.22565517241378,71.03689655172414,16900.0
124.14907907492037,95.30132022342241,71.17065965009462,16933.333333333332
124.02696145124716,95.60482993197279,71.47557823129252,16966.666666666664
123.66425877970106,95.03443732679115,71.08525282813139,17000.0
123.65433192494663,95.0405933396938,71.0776202807687,17033.333333333336
122.61082352941177,94.27769187675072,70.21595518207283,17066.666666666668
122.11767185905116,93.69202946789152,69.79359162117781,17100.0
121.3796717116004,93.08425627675064,68.98402682786922,17133.333333333332
122.24532233464373,94.26291594165536,70.24489269833086,17166.666666666668
118.90941056007419,92.25857305693475,68.67676435926663,17200.0
119.94148628552544,92.28319150693984,68.41827081956377,17233.333333333336
122.92102484976448,94.95976124736073,71.08271073574792,17266.666666666664
122.51734167820105,94.25564181260157,70.08340855750134,17300.0
122.5941127173685,92.3480201131364,68.37150639011104,17333.333333333332
123.98086777553765,93.66160534274192,69.16588961693549,17366.666666666668
126.93091932949189,94.63582591234504,70.15944211629125,17400.0
127.18029642545773,94.83653007846556,70.40542720139494,17433.333333333332
123.80849379011421,92.91443694256895,68.47174293573393,17466.666666666664
123.94148936170212,93.02525067253609,68.84696747370995,17500.0
124.62963508255336,93.19709748659164,68.68135450625722,17533.333333333336
126.07905456824386,92.82049330766823,68.68087201754778,17566.666666666668
123.52242784754351,91.56347213042521,67.34798413747521,17600.0
123.5109715796431,91.56717338620842,67.3469486671073,17633.333333333332
126.47068544005795,93.86012767113364,69.54620155740673,17666.666666666668
125.28005808544914,93.09207451274023,68.74299457717878,17700.0
126.35859649122808,93.47962573099414,69.73983625730995,17733.333333333336
126.4407659269864,95.75239352183249,72.10497942018611,17766.666666666664
125.72478146853148,96.14296328671328,73.1441215034965,17800.0
125.75052447552449,96.17036713286713,73.1346590909091,17833.333333333332
125.19039759622507,96.86480881948413,74.01538331323134,17866.666666666668
124.2778079445303,95.91604360720105,73.3471032956017,17900.0
126.6961311380982,95.42610281764507,71.2867805884894,17933.333333333332
126.62647613140251,95.76074146527658,71.88920962855165,17966.666666666664
125.41373697916666,95.4115048363095,71.62546502976191,18000.0
125.09772559171594,95.20716993343196,71.43990384615384,18033.333333333336
124.83361681306648,94.98671916866655,71.31454600526573,18066.666666666668
124.82078598484848,95.0056818181818,71.31567234848484,18100.0
124.84983957219252,94.97528223410576,71.14780748663101,18133.33333333333
124.88027701356607,95.1425149416564,71.29852480789297,18166.666666666668
124.449883286648,94.98382352941178,71.30597572362278,18200.0
124.45212418300652,94.97126517273577,71.34771241830066,18233.333333333336
124.43424148315451,95.1385046113307,71.2112977602108,18266.666666666664
125.1949610218841,95.85716633793557,72.07523245984784,18300.0
124.97410068563913,95.75093923170843,71.8350943927867,18333.33333333333
125.05428759274912,95.84155161078236,71.92558936789706,18366.666666666668
124.47300692732183,95.1569801573324,71.30104496888576,18400.0
124.4730304097687,95.13765410355758,71.21484090642245,18433.33333333333
125.10594223484848,95.44195075757575,71.60388257575758,18466.666666666664
124.76625736853144,95.32095342389151,71.5871758428668,18500.0
124.57321510824505,95.04391985260249,71.39355135882082,18533.333333333336
124.8889249304912,95.11464318813715,71.38037534754402,18566.666666666668
126.13908252485331,95.32746436699007,71.61882860222781,18600.0
125.80363636363636,95.11246583481878,71.48463458110517,18633.33333333333
126.5247469879518,95.60385542168676,71.7321686746988,18666.666666666668
128.14902143981118,96.55315696302124,72.8133113690008,18700.0
128.33401212121214,97.13391515151515,73.1685818181818,18733.333333333336
128.40666185666186,96.94822029822028,73.04610389610389,18766.666666666664
129.23093975903615,97.49546987951807,73.36040963855422,18800.0
129.2684578313253,97.53334939759036,73.41942168674699,18833.33333333333
134.89101025025394,103.57602271677902,80.51775325514822,18866.666666666668
136.31455354606572,104.34428557901714,80.7321039674273,18900.0
138.09649651156954,103.9961602168348,80.11765296391107,18933.33333333333
142.55129178263192,105.7688285401029,80.65671473953502,18966.666666666664
140.1498244459074,103.73038731621679,78.63737107746324,19000.0
140.17643186306782,103.7658272986614,78.65344524906737,19033.333333333336
140.1280484432893,103.63291489244041,78.16084167450094,19066.666666666668
140.27361668003206,104.38166265704358,79.57000801924619,19100.0
142.0244831036016,105.87266562916851,80.41510115606937,19133.33333333333
143.09636082693947,108.5622069479966,83.59348358908781,19166.666666666668
143.32572115384616,109.25269764957264,83.92662927350429,19200.0
143.27923976608187,109.3796650717703,84.03763955342903,19233.333333333336
144.36379868318267,109.04394040843657,84.16457426626492,19266.666666666664
144.25762533598225,107.87384597405634,82.20585485567372,19300.0
144.31202558125636,107.66932640009563,82.0933297471759,19333.33333333333
144.92755558315736,107.63256117252514,81.81856291143956,19366.666666666668
145.16336727594708,107.21228891278223,81.93681614066156,19400.0
145.26187464423504,107.24957308203147,81.98893175637214,19433.33333333333
145.7019306282723,107.5107657068063,81.72359293193719,19466.666666666664
145.97967560410459,107.61708043694141,81.92019198940748,19500.0
146.6415758478305,107.915758478305,81.96107764164353,19533.333333333336
146.68026128748392,107.76907195559464,81.97901577201651,19566.666666666668
146.7717435688036,107.87617394855043,82.01769429699195,19600.0
146.3988695593312,107.7368171664523,81.95809923509104,19633.33333333333
146.53052866716303,107.70794693021051,82.02629797603736,19666.666666666668
145.5795660036166,107.2736253432456,81.55237425490591,19700.0
145.79195367874613,107.44644105021463,81.80180360054572,19733.333333333336
145.6156084656085,107.37526455026457,81.69113756613756,19766.666666666664
145.23281351526958,107.20942170240414,81.5675763482781,19800.0
145.1877192982456,107.18895386614685,81.58469785575049,19833.33333333333
144.13271241933944,106.5589815315172,81.00966337137226,19866.666666666668
143.1417549730433,106.08966970316663,80.65622482493647,19900.0
142.94053972561434,106.15829941203077,80.46594301221168,19933.33333333333
142.15182256845532,105.68289634323587,80.02930062205688,19966.666666666664
140.40173076923077,104.96112637362637,79.1974175824176,20000.0
140.3489010989011,104.93302197802198,79.08862637362637,20033.333333333336
139.3078547528934,103.14582304865336,77.4293236794471,20066.666666666668
136.71885150058463,101.6894634273093,75.96164739508899,20100.0
135.77861577138168,100.77425478425941,75.27543481606895,20133.33333333333
134.84221036932178,100.10402184079477,74.33074647994134,20166.666666666668
134.31658808186197,99.37818519261637,73.71240469502408,20200.0
134.29248595505618,99.36321227929373,73.75749899678972,20233.333333333336
133.30147494080506,98.84236878453041,73.0722178374112,20266.666666666664
130.9556847244827,97.4720530109277,72.39834922111137,20300.0
128.90298831652834,95.93323730479914,70.90907012369391,20333.33333333333
127.66085858585858,94.1428145087236,69.79814049586777,20366.666666666668
125.7530612244898,93.27653061224493,68.2460544217687,20400.0
125.70809523809523,93.21972789115648,68.25145124716553,20433.33333333333
120.5148976929975,90.40354202331457,66.42600065215619,20466.666666666664
120.56995927526596,90.39608959441489,66.00137134308511,20500.0
119.21696534269505,89.39449728538189,65.30658856186471,20533.333333333336
118.69752424179904,89.1533319579121,64.36210026820713,20566.666666666668
117.89713651945956,88.93772938092356,64.3876991328897,20600.0
118.21222672064778,89.11995951417003,64.59433198380567,20633.33333333333
118.51896845694799,88.77796248934357,63.55196078431371,20666.666666666668
118.24481415629498,88.5248497163661,63.81195495724325,20700.0
116.4020757020757,87.850407000407,62.87592592592594,20733.333333333336
116.43684794216708,87.76367781155015,62.78904132095622,20766.666666666664
117.03525091799266,88.45242758057934,63.28423092615259,20800.0
117.03514891880863,88.46285189718479,63.29918400652794,20833.33333333333
116.65937817516763,87.95984555984556,63.160902255639094,20866.666666666668
115.72241317293474,87.71505935014588,62.566404220454814,20900.0
116.58551611587109,88.22513259893921,63.011036311709496,20933.33333333333
117.19796242835028,88.36935693067234,62.7707836492197,20966.666666666664
116.97364127023974,88.17568302581482,62.74532446341157,21000.0
116.9672398644408,88.17375842014978,62.72455127400527,21033.333333333336
116.59608114919355,87.98418598790323,62.41030325940861,21066.666666666668
116.96803595430107,88.13020833333334,62.84305695564517,21100.0
116.73397597446238,88.24899193548387,62.562794018817215,21133.33333333333
116.73514211886305,88.16037342669,62.66024839543218,21166.666666666668
116.11588501649351,87.91933534124203,62.31862232876431,21200.0
116.10953346855983,87.91966316307087,62.3139508677034,21233.333333333336
116.36213010516018,88.08742968941061,62.60267384038477,21266.666666666664
116.17313829787236,87.95902209492634,62.42236088379706,21300.0
116.13145320347289,87.70382871434091,62.35690612228299,21333.33333333333
115.56830765527201,87.35523992938532,61.880617075910756,21366.666666666668
118.1865960562476,89.6150127379591,63.992016208300726,21400.0
115.66823052303043,87.44442677375109,62.13186092280779,21433.33333333333
118.18099937814686,89.60048945858658,63.98999017070872,21466.666666666664
118.33488707063835,89.73463100406107,64.32654490167444,21500.0
118.71397785094284,90.20963783298414,64.72477302204929,21533.333333333336
118.06767393109995,89.3351263694973,64.58072617964639,21566.666666666668
116.1797291831192,88.52410578423252,63.80767378700618,21600.0
116.27987530978935,88.535780669145,63.747928283767045,21633.33333333333
116.8498673740053,89.23729246487865,64.86206896551724,21666.666666666668
115.95417021936285,88.62865281761104,64.2286644446167,21700.0
118.59043213842136,88.71412051908004,64.33493939783288,21733.333333333336
117.44003655547708,88.80156191583933,64.25601296057825,21766.666666666664
117.88593148226565,89.851128183413,65.46435988950053,21800.0
117.9336801564737,89.85370919282963,65.4898876857621,21833.33333333333
117.13120759022398,89.52026661862728,65.01002822314298,21866.666666666668
119.64899669329829,91.55651173776415,67.04766990490666,21900.0
119.35444746734233,91.67525077360806,67.18489750991671,21933.33333333333
121.81455368125108,93.57329555438412,69.22588297311546,21966.666666666664
120.47636540207316,93.15778917811977,68.87178837587349,22000.0
120.45308924485128,93.14365624205442,68.84024069836428,22033.333333333336
120.87551903114183,92.8597534602076,68.88055795847751,22066.66666666667
120.74155604473795,92.88052831699021,68.45838614279678,22100.0
122.14549969827786,93.49062340435408,68.99222485262034,22133.33333333333
121.17932074781734,92.96640307171916,68.49590894546786,22166.66666666667
121.40338827838829,92.93589743589745,68.66595695970696,22200.0
121.77593274988483,93.17611699677569,68.84622293873791,22233.333333333336
121.92612587670729,93.37380029531192,68.95840254706532,22266.666666666664
122.62282986111107,93.96452394005848,69.71461531432747,22300.0
122.52886456908344,93.9313953488372,69.52453260373917,22333.33333333333
123.27212979134113,94.27320985384684,69.98823421270338,22366.66666666667
123.13719091828293,94.1900680209578,69.85177865612648,22400.0
123.17120836774015,94.17886962106616,69.84062758051198,22433.33333333333
123.39741022256612,94.37560875699785,70.19550771471485,22466.666666666664
123.52096522616756,94.41274428846684,70.12654830718415,22500.0
123.16190979563072,94.49788583509516,70.49621212121212,22533.333333333336
123.53738554881413,94.93562051847765,70.77217870932157,22566.66666666667
121.52814562300598,92.80088282854773,68.66598924872164,22600.0
122.06914269262285,93.10816557039401,68.93262906119195,22633.33333333333
119.4882328042328,91.342708994709,67.35830687830689,22666.66666666667
120.08603773584906,92.60150943396226,68.86001986097318,22700.0
121.61607399204296,93.26690865838152,69.16707682211558,22733.333333333336
120.73693155909297,91.85078555735191,67.84336525307798,22766.666666666664
119.24485785953176,89.9814381270903,65.85541387959866,22800.0
119.23520066889631,89.99510869565216,65.81360785953177,22833.33333333333
120.26596587827974,90.71789096066408,66.51167980644891,22866.66666666667
121.63510143702452,91.66648351648351,67.27694420963654,22900.0
124.76137884872824,92.89761267291388,68.57248995983936,22933.33333333333
122.075615352524,91.77607425949104,67.3889653733834,22966.666666666664
121.54060633804279,91.02097421918891,66.75145134105995,23000.0
121.53475935828877,91.0314197132691,66.72854200045778,23033.333333333336
122.0182043017292,92.22165460479636,67.65484806097832,23066.66666666667
122.29125385739808,92.08632450868929,67.796776027286,23100.0
123.431643625192,92.50799186283056,67.95711379582347,23133.33333333333
124.5773783789348,92.9954295596319,69.00891441747473,23166.66666666667
124.8767525337838,93.17880067567567,68.70171030405406,23200.0
124.86674408783784,93.1900760135135,68.67793496621621,23233.333333333336
125.69933242040396,93.49293906196509,69.02935638479973,23266.666666666664
126.21752546910808,93.03979760851317,68.37667052390353,23300.0
125.31872,91.95762285714287,67.92091428571429,23333.33333333333
128.64826285394932,95.56340815946348,70.84912909836065,23366.66666666667
127.25084769061584,94.29781433284458,70.19334219208211,23400.0
127.27776759530792,94.31749450146627,70.23467283724341,23433.33333333333
125.98774287903058,93.37725468347378,68.87954128653341,23466.666666666664
127.29722903737913,94.13352095059412,69.80968874777506,23500.0
126.8046060716399,95.72229302262072,71.77363342587957,23533.333333333336
126.44148971650915,96.28284602556977,72.85736520289048,23566.66666666667
125.99081090497343,96.74666840867519,73.43238829370264,23600.0
125.95647156171066,96.74438202247192,73.44257904363731,23633.33333333333
125.58643639787708,96.84790703646635,73.83928265707927,23666.66666666667
125.41996233521657,96.82909604519772,73.75569251840437,23700.0
125.31393089465237,96.62946692574131,74.07717327025428,23733.333333333336
124.36678265973505,96.28217759517023,73.23216082508804,23766.666666666664
128.42675912996143,97.21081157842414,73.04783318738019,23800.0
128.42834489124516,97.19904854322974,73.06061394996568,23833.33333333333
128.3285129346051,97.1980071477598,72.91891316181865,23866.66666666667
128.28346456692913,97.41804930633673,73.18796869141356,23900.0
128.16151106111738,97.36705568053992,73.02873078365205,23933.33333333333
124.61016665970509,96.76763710789022,73.70045110897622,23966.666666666664
124.35305483796442,96.43733854199483,73.18123201646607,24000.0
124.31856845819419,96.43259193917628,73.16119547182494,24033.333333333336
125.14419523384736,96.80837687438937,73.6981649037849,24066.66666666667
124.88817925495556,96.44431390977444,73.31514866712236,24100.0
125.41686253369272,96.47432884097034,73.3992884097035,24133.33333333333
125.00602879944479,95.68498438584317,72.42550746009717,24166.66666666667
125.82673472503981,95.95469319198132,72.63224483563467,24200.0
125.8548960582859,95.98756625875272,72.68335405623542,24233.333333333336
125.91979854410023,96.84588200440157,73.60455815134587,24266.666666666664
126.43372717508056,96.7381095596133,73.4384962406015,24300.0
133.8032196969697,101.65392992424242,77.50627367424242,24333.33333333333
134.87003988035892,101.11131605184444,76.44172482552342,24366.66666666667
136.90665634674923,102.19029927760576,77.43833849329205,24400.0
136.93519091847264,102.23400412796695,77.50343137254902,24433.33333333333
136.34865949020008,101.51122169188585,77.12381943739209,24466.666666666664
136.2139479018092,102.0789230037785,77.3006030578285,24500.0
135.66057571964956,101.46377972465582,76.75526908635794,24533.333333333336
138.3602129389243,103.10956389478928,77.8061259276742,24566.66666666667
138.034954248366,102.639477124183,77.36941176470587,24600.0
138.0744836601307,102.6635294117647,77.38441830065359,24633.33333333333
138.03555194805196,102.14683441558444,76.59499458874457,24666.66666666667
141.6213517665131,105.51341342988808,80.06846609611587,24700.0
140.53247503941142,105.94248554913294,80.53011035207567,24733.333333333336
142.63859326886714,107.4301766517206,81.7814542704338,24766.666666666664
143.11809729147018,108.28168710416384,82.60468939496025,24800.0
143.1710281633203,108.32152001078022,82.64662444414499,24833.33333333333
144.83719157585682,108.5707752244368,83.17765795268477,24866.66666666667
145.4698409097354,109.64591781754248,83.87703825539515,24900.0
144.6895928356881,109.29711313828012,83.78170541773278,24933.33333333333
145.08663345900868,110.40729834603847,84.62165286072047,24966.666666666664
146.26952317066358,111.13010788752865,85.59078204483203,25000.0
146.26871261669183,111.13164514506121,85.59075409469506,25033.333333333336
145.9684673401798,111.06843672594697,85.51384598257772,25066.66666666667
146.05762987012986,110.78588222122706,85.45149462606359,25100.0
146.1066733792023,111.07215975834872,85.58754265257035,25133.33333333333
145.84233670089898,110.83738276140379,85.38849461467814,25166.66666666667
145.91922582088716,110.91835878503105,85.47675784527605,25200.0
145.88697768081894,110.89816524025284,85.41058343122448,25233.333333333336
145.40053689046331,110.58822715448058,85.2310289478054,25266.666666666664
145.0750883638084,110.08148952158304,84.64724054437673,25300.0
145.17763455450026,109.62319086386248,84.34823043871552,25333.33333333333
144.70135642135642,108.72294372294373,83.25183261183261,25366.66666666667
143.68102138599974,107.17617155545167,81.67444782049785,25400.0
143.73229386892174,107.125,81.58979328165374,25433.33333333333
143.18419977828344,106.82186825369041,81.06423945387712,25466.666666666664
143.25492509142387,106.27262003067123,80.49115253037631,25500.0
142.2983018540981,105.72549529255473,80.00158840177902,25533.333333333336
140.46317959001786,104.43733288770052,78.90399398395722,25566.66666666667
139.63422164445888,103.99176687249485,78.45769689091105,25600.0
139.5973621492796,103.9994312642184,78.42449355432781,25633.33333333333
140.09890109890108,103.9841452080258,78.45281832595265,25666.66666666667
139.95029859371988,103.82274265899773,78.13498637752153,25700.0
140.9602,104.09345714285715,78.2212,25733.333333333336
139.64285517431443,103.88879702356346,77.93344357172384,25766.666666666664
138.5417034835462,103.40945725225588,77.58826679519105,25800.0
138.52737837041798,103.41382172597531,77.63338420756688,25833.33333333333
138.38706376561828,103.2834446359328,77.39977380439466,25866.66666666667
138.28315681952586,103.07572173539057,77.44062147196388,25900.0
138.00581987877487,103.09904521804432,77.40460226358421,25933.33333333333
138.22179040833402,103.02849971662214,77.43416187623134,25966.666666666664
139.36667784672144,103.4267985913131,77.6022695511208,26000.0
139.4617944845332,103.59884208759857,77.70229904346367,26033.333333333336
140.24045197740114,103.74353107344628,78.06177966101694,26066.66666666667
139.51156037391448,103.6380054206538,77.99316886995962,26100.0
139.6219734660033,103.78698175787727,78.16655610834715,26133.33333333333
139.80841602045638,103.88237583034548,78.21907223658245,26166.66666666667
139.2943619361936,103.50948844884488,77.89282178217822,26200.0
139.29257425742574,103.51589658965895,77.87744774477447,26233.333333333336
139.2710396039604,103.48968646864687,77.82989548954895,26266.666666666664
139.66516400243376,103.68773162232424,78.03493002931577,26300.0
139.5817246529122,103.68286409646551,77.95337131478509,26333.33333333333
139.28267651888342,103.43872468527641,78.0056923918993,26366.66666666667
139.0999726327313,103.36603721948549,77.75982484948003,26400.0
139.00500821018062,103.35232621784347,77.70766283524904,26433.33333333333
139.34253477927484,103.4668638405083,77.86107459743673,26466.666666666664
139.4552559912854,103.71097494553379,78.13627450980394,26500.0
139.482381795885,103.68001090066768,78.08832265976291,26533.333333333336
139.40399867812292,103.39664573694643,77.60715465961665,26566.66666666667
137.84692210887087,102.26858917717621,76.66064208637908,26600.0
137.5410564992811,102.12319612332924,76.51632142286597,26633.33333333333
135.66852032186972,101.13148992875814,75.45528163600021,26666.66666666667
134.63236117473406,100.12024736601008,74.62416653942078,26700.0
134.13425717852684,99.99061173533084,74.29295880149813,26733.333333333336
133.4669149596524,99.15011793916821,73.55438857852265,26766.666666666664
132.9954509297007,98.65558814755892,72.74788704385006,26800.0
132.9011385104902,98.6319727552948,72.67629511782837,26833.33333333333
130.98134948918982,97.51002613447376,72.16127346162985,26866.66666666667
127.72248206339115,95.72252747252749,70.5143265825084,26900.0
127.04453551912569,94.87682149362476,69.80268670309654,26933.33333333333
124.52651647966341,93.56578716690042,68.62131837307153,26966.666666666664
124.58923206079888,93.37002916224812,68.5652394839166,27000.0
124.67376400791036,93.64559437486272,68.8740057130301,27033.333333333336
119.67779186030135,90.71402418170479,66.34598748667189,27066.66666666667
118.1448057704707,89.46091231463572,65.19829948420374,27100.0
116.30181476595915,88.14498141263941,63.66266938481832,27133.33333333333
116.77895894428153,88.24849299446073,63.66509856630825,27166.66666666667
116.93774167009458,88.49804607157547,63.54732620320855,27200.0
116.9135129576306,88.48549979432332,63.554751131221714,27233.333333333336
117.67946947826452,88.54336638634365,63.8211999497929,27266.666666666664
118.32468913612566,89.7789185209424,64.48895615183247,27300.0
116.64190495368506,88.68125251711639,63.581635118807895,27333.33333333333
116.49081337522628,88.28787531991927,62.832809671445524,27366.66666666667
116.59114433582519,88.3415345436622,63.114228209972886,27400.0
116.67254500818329,88.40139116202947,63.138072831423905,27433.33333333333
116.39976484420929,88.45129639765655,62.97026090129538,27466.666666666664
116.65906301145664,88.20759001636664,63.26585515548282,27500.0
116.40604395604393,88.52887667887668,63.08266178266179,27533.333333333336
116.6473676741876,88.63196091548582,63.27344969490564,27566.66666666667
116.69758892631228,88.6346627782798,63.118623182452964,27600.0
116.65819847202827,88.65540540540545,63.12687915879405,27633.33333333333
116.83232506761921,88.71306753659695,63.02882332294097,27666.66666666667
116.7697231226643,88.69394834100717,63.00960089195384,27700.0
117.10724460724458,89.16430606430607,63.56662596662597,27733.333333333336
116.76515840683464,89.48591939247714,63.99295969623857,27766.666666666664
116.43685077025593,89.33073968092195,64.08606091489945,27800.0
116.47342322919523,89.3361883109247,64.10936458782486,27833.33333333333
116.24707532051279,89.20148237179487,63.715765224358975,27866.66666666667
116.12031441324012,89.1845005332385,64.11425129359718,27900.0
116.26581003289472,88.92267680921053,63.609087171052636,27933.33333333333
116.62074283511116,88.5182067429208,63.36473460994731,27966.666666666664
115.92684824902723,88.79516690559082,63.83919721482695,28000.0
115.9443579766537,88.81079254556627,63.87550686053657,28033.333333333336
114.2087837837838,86.76967649467647,62.290438165438175,28066.66666666667
115.47931888418164,87.72458607069031,62.91484005648677,28100.0
116.40043541364295,88.04509641302093,63.4055152394775,28133.33333333333
116.66076265447774,88.17369222955816,63.60345776197732,28166.66666666667
115.91988950276243,87.97972171066094,63.74575404133415,28200.0
115.91168436402472,87.97397769516728,63.762554170346476,28233.333333333336
115.56934862826887,88.34682335953795,64.38562891063692,28266.666666666664
118.58101339295312,89.94070984801256,65.92570458112088,28300.0
119.29231342629132,90.56434710163992,66.21075594141892,28333.33333333333
120.81056214317086,91.85423803249891,67.71174791392183,28366.66666666667
120.21335818577198,92.62739981360671,68.50556073314694,28400.0
120.22375478927204,92.64827586206896,68.51763487625557,28433.33333333333
121.22722929244672,92.68952786344092,68.62124831690049,28466.666666666664
120.82224532224531,93.384158004158,69.39320166320168,28500.0
120.58100247031635,93.79524264881664,70.08831380986533,28533.333333333336
120.35481849785756,93.55204543617107,69.71141563586386,28566.66666666667
124.7930742857143,95.30228571428572,71.18077714285717,28600.0
124.83305142857144,95.34180571428571,71.19673142857144,28633.33333333333
123.32400449943756,94.73295838020249,70.37775028121484,28666.66666666667
121.2863729275494,92.4832841244606,68.33688394276629,28700.0
122.27392396502584,92.51164194966428,67.90355538379788,28733.333333333336
122.63146536045977,92.77375785057829,68.28225708673828,28766.666666666664
122.11884881422924,92.24864130434784,67.48465909090909,28800.0
122.11889822134388,92.25832509881424,67.44854249011857,28833.33333333333
121.61928921568628,91.89115196078433,67.19397058823529,28866.66666666667
121.55365196078432,91.86193627450979,67.12210784313726,28900.0
121.69553038606749,91.98711484593838,67.35018877116063,28933.33333333333
122.28908886389202,92.66625910891571,67.90377561500465,28966.666666666664
122.21287756795002,92.4026740838335,67.82496462206606,29000.0
122.53181951793064,92.57564177934549,67.93601802861062,29033.333333333336
123.22809994589544,93.30404308691162,68.52774088829865,29066.66666666667
124.07547766824877,93.91449434100036,69.38337592795425,29100.0
124.66202579191184,93.85634155502692,68.96637035182171,29133.33333333333
125.4219624255106,95.47018150388935,71.45325933676024,29166.66666666667
126.22620104094212,95.29928285323679,70.54858129662055,29200.0
126.51920293351348,95.52248383672682,70.69815690437133,29233.333333333336
126.44665271966528,94.93255515405096,70.80600988969191,29266.666666666664
127.26749239461105,95.0941861026607,70.14051861509489,29300.0
127.73980983093449,95.3308989163683,70.46923387001162,29333.33333333333
126.73933769344141,94.67416635961679,69.85388264554163,29366.66666666667
128.32849629452548,95.1549366483385,70.24491991393737,29400.0
128.3418120965814,95.17289027014105,70.25749462108534,29433.33333333333
128.9451566951567,95.74703228869896,70.71975308641973,29466.666666666664
130.40181800646187,96.18196942662873,71.53156194242177,29500.0
129.92355834794466,96.26658386908241,71.11786479641535,29533.333333333336
131.16573510330372,96.49565824932628,71.63868649565825,29566.66666666667
132.5630141738527,98.6567301020914,73.18478045395977,29600.0
132.5383090494598,98.69283377936364,73.15442561205273,29633.33333333333
132.56517376407243,98.9288056779246,73.46989720998532,29666.66666666667
133.7803509462752,100.4502744075013,74.89764477149116,29700.0
132.65963914977758,99.42617399901137,74.52600098863073,29733.333333333336
132.36967947294394,99.77437264046192,74.30863375033928,29766.666666666664
132.90513320337882,100.0040235917429,74.61091118108662,29800.0
132.91840355875445,100.01102114260007,74.64599890038487,29833.33333333333
132.8993715434892,100.06417797888386,74.60266465560584,29866.66666666667
132.27838348231143,99.40846027949136,74.05519325191993,29900.0
132.19366708385482,99.59371714643305,74.18075093867334,29933.33333333333
131.4049888309754,98.85837676842888,73.62995780590717,29966.666666666664
131.064864055127,98.50111102788807,73.2094974159239,30000.0
131.03752527900534,98.51059845704442,73.16275934386937,30033.333333333336
131.3930648881757,98.51371477284124,73.34713168187744,30066.66666666667
131.8490746569306,99.00828402366864,73.78715850434344,30100.0
131.85625078685638,98.93611985395944,73.72227118217296,30133.33333333333
131.6400895856663,98.83190245116337,73.57765335324126,30166.66666666667
131.4951840385277,98.55044473929922,73.64435598800924,30200.0
131.81392651812374,98.70683741703064,73.77173242529672,30233.333333333336
130.9217712359996,97.92444741798,72.74169887996828,30266.666666666664
131.7742949035131,98.63686293913904,73.51058881741713,30300.0
131.32538943862056,98.27096600372292,73.18952679533653,30333.33333333333
131.85191489361702,98.23249061326658,73.23609511889862,30366.66666666667
131.7787315212208,98.15935045051829,73.08222272419246,30400.0
131.81610320507994,98.17348091258188,73.06558241096303,30433.33333333333
131.95931233481244,98.54913799374408,73.86983826774326,30466.666666666664
131.05355162270337,97.98382118917877,72.8780922987896,30500.0
134.02781777046485,99.36026840806255,73.90186651583711,30533.333333333336
134.57637212296794,98.91332689521973,73.18077686571169,30566.66666666667
136.30270861833105,100.00935704514364,74.41912448700408,30600.0
136.52506871907642,100.11858163826278,74.57226498075866,30633.33333333333
134.45246222645602,99.4074515096187,73.82614908311504,30666.66666666667
136.3331341012823,100.67713540534666,75.21489893501412,30700.0
135.31512270332777,101.22317872285751,75.79352434793779,30733.333333333336
138.36119321291736,102.79819376026272,77.30678708264915,30766.666666666664
139.2384593837535,103.56624649859944,77.74745098039216,30800.0
139.4233356790992,103.66699507389164,77.83256861365236,30833.33333333333
139.69207282913166,104.0258543417367,78.27602240896357,30866.66666666667
139.99092110071112,104.42920988278944,78.60199004975124,30900.0
139.8048011505061,104.6732120139388,78.96769732839205,30933.33333333333
140.20703389830507,104.87299435028248,79.00299435028249,30966.666666666664
140.4206779661017,104.88581920903955,79.27525423728814,31000.0
140.44564971751413,104.91728813559322,79.3081920903955,31033.333333333336
140.31293785310734,105.0065536723164,79.31488700564972,31066.66666666667
140.57110169491526,105.01686440677963,79.51053672316384,31100.0
140.27296610169492,104.9622881355932,79.3777966101695,31133.33333333333
140.67384947335552,104.91874627374159,79.44453907957869,31166.66666666667
140.46400568181818,104.89571022727272,79.32488636363638,31200.0
140.42167613636363,104.90758522727272,79.2528409090909,31233.333333333336
140.73518158976702,105.0577318410233,79.53691754225673,31266.666666666664
140.6266906351652,104.96630143240313,79.3262854534041,31300.0
140.563467052778,104.89177526048321,79.57402833375919,31333.33333333333
140.61370769845345,104.7723848656052,79.2728984762883,31366.66666666667
140.40856826505407,104.64801408170796,79.12236322857224,31400.0
140.56908063687726,104.69591394167664,79.19100610626035,31433.33333333333
140.53093434343435,104.57570018365473,78.95554981634527,31466.666666666664
139.89635579937305,104.06650246305418,78.91370913569189,31500.0
139.59020094829532,103.60930797019644,77.85267554752765,31533.333333333336
138.29879863330765,102.5368676292296,76.88352805025902,31566.66666666667
137.62014490385138,101.9006918341777,75.96584409217192,31600.0
137.56095767282235,101.87489785912732,75.92942746636159,31633.33333333333
136.28515164505413,100.43867216804199,75.06006858857572,31666.66666666667
133.8891942790248,99.33134829745,73.57703466178043,31700.0
132.7234871031746,98.43950892857143,72.91934523809523,31733.333333333336
129.643634552913,96.70350698314087,71.35413653285278,31766.666666666664
128.34615749300715,95.19549139524959,70.2223486464704,31800.0
127.99015673685206,94.96055613256536,70.09550561797752,31833.33333333333
128.38354149587693,95.30329845204224,69.77614891257173,31866.66666666667
127.14780996197365,94.3852401295714,69.36927843763203,31900.0
121.36818061440678,90.91849841101696,65.86548817090396,31933.33333333333
119.88766835016837,90.09103535353536,65.67948232323232,31966.666666666664
117.96405585913782,89.38765432098766,64.56607974094312,32000.0
117.95247925521149,89.35616272009716,64.57148350536329,32033.33333333333
118.28741538210586,89.46317592366039,64.60413098442216,32066.66666666667
119.05019980019979,89.8259448884449,64.55163586413586,32100.0
119.79849817457684,90.34137487553932,65.1379646531696,32133.33333333333
120.04627607178038,90.31108398646623,64.52218510428712,32166.666666666664
120.64576278738191,90.28649082160042,64.99730440206737,32200.000000000004
120.61608893245408,90.30261985385849,65.01396809837819,32233.333333333336
118.86484468339307,89.82866103430621,64.46144819935142,32266.666666666664
118.76570286990892,89.2622658532394,64.22381422924902,32300.0
117.70173920567622,88.53346456692913,63.216102794842946,32333.333333333336
117.93678781077348,88.57944147099447,63.25940953038674,32366.66666666667
117.70919700033704,88.87038675429726,63.354145601617795,32400.0
117.724191976956,88.80861608844835,63.20373194391496,32433.33333333333
117.68268809349891,88.68099759991651,63.75642283209852,32466.66666666667
117.93877939434952,89.02002622229742,63.4808408052783,32500.0
118.08799272542716,89.25564625274912,63.63715953307394,32533.33333333333
117.90365998641305,89.08130944293478,63.54999575407609,32566.66666666667
118.58164961636828,89.3256820119352,64.02751491901108,32600.0
118.60010656436488,89.31592071611254,64.0985294117647,32633.33333333333
118.21184995737428,89.54332907075874,63.81072037510656,32666.666666666664
118.12544341216216,89.50935388513514,63.967884290540546,32700.000000000004
117.17971734148205,89.18542568542568,63.80791104320516,32733.333333333336
116.62464122006598,88.68660840508932,63.575804309643146,32766.666666666664
118.31642759562841,90.56339651639344,65.31969347677595,32800.0
118.72875943072701,90.82126628943756,65.57947530864197,32833.333333333336
117.69436377896008,89.58562435084896,65.18655276935796,32866.666666666664
116.83545368293943,88.78318526824219,64.06182076936346,32900.0
115.84374170088456,88.07237850094994,64.31872689015546,32933.33333333333
116.34587987529163,88.57539281068694,64.38368467780232,32966.66666666667
115.87122079111091,88.08616492228303,64.22037495578351,33000.0
115.88131255331987,88.11847936910881,64.24028797935871,33033.33333333333
116.38380519042805,88.34340242669363,64.46267273340075,33066.66666666667
117.11252326171544,88.39914989003553,65.07813821688379,33100.0
116.81355967769012,88.49160651334564,64.96508309551787,33133.333333333336
117.2117709213863,88.53962383770077,65.1207100591716,33166.666666666664
117.91524676850763,89.4397137821051,65.87139080073862,33200.0
117.947498740977,89.47230149404062,65.90559425885513,33233.333333333336
121.15449066252684,90.4219670334688,66.96198803707594,33266.666666666664
125.26658612705124,92.59548978153627,67.88674116581093,33300.0
125.15861981799792,92.14944388270979,67.99398382204247,33333.333333333336
125.16363964242471,92.19736198057552,67.62395342246954,33366.666666666664
124.49974903378003,92.17881343171207,68.14510866837324,33400.0
124.54655423380012,92.21166490990312,68.20737338754203,33433.33333333333
124.65486725663716,92.37472504987468,67.87559465957338,33466.66666666667
125.12352910817505,92.4903488852188,68.27786952931461,33500.0
124.81125415282392,92.46262458471762,67.65204526578073,33533.33333333333
125.45914659468436,92.625155730897,68.31018999169436,33566.66666666667
124.92072351421189,92.8642377260982,67.85684754521964,33600.0
124.89297157622738,92.90837209302325,67.82325581395348,33633.333333333336
125.1570157041281,93.19376950227634,68.39124763415009,33666.666666666664
124.4988474541543,92.75563466857905,67.83080626984939,33700.0
125.1570284237726,93.0433850129199,68.14560723514212,33733.333333333336
125.05061014772,93.21353885677586,68.26155427103404,33766.666666666664
125.67181627310195,93.3637471163068,68.61383135902953,33800.0
125.6908940096944,93.36667617097383,68.62241115632858,33833.333333333336
125.80716554704992,93.51419049106907,68.6869239181378,33866.666666666664
125.99997407916223,93.61870447652868,68.96443661059126,33900.0
126.15288351235792,93.5477369903014,68.90442173323599,33933.33333333333
126.68413471611143,93.82254347370626,69.28731929604022,33966.66666666667
127.19469144703464,93.87673903174984,69.14315469037889,34000.0
127.2031829955406,93.87695265561165,69.13663916259446,34033.33333333333
127.65555822585381,94.02037437581775,69.43173382466821,34066.66666666667
127.3979000531632,94.1774322169059,69.32426900584795,34100.0
127.3100599810586,94.11162264548037,69.44891087025151,34133.333333333336
127.32928475033735,94.09115927072584,69.309227064645,34166.666666666664
128.67661365251138,94.63819205334208,69.82267584849976,34200.0
128.4644090847273,94.56156670746634,69.80889432884537,34233.333333333336
128.62726709246238,95.00309914571376,70.0907106475867,34266.666666666664
129.2820300832089,95.78293684659698,70.86278536377212,34300.0
130.02149590109215,96.47987930251809,71.38601831824614,34333.333333333336
130.94863452101558,97.03002986985277,72.24647962449329,34366.666666666664
130.99702544031308,97.63488584474888,72.58945857795173,34400.0
130.8409869240349,97.6534609796596,72.55144769613949,34433.33333333333
131.99220539828838,98.41706385780121,73.26196181698485,34466.66666666667
132.1110671728356,98.69186966149952,73.32713803648635,34500.0
133.22966174266753,99.19479233568829,74.23964354527938,34533.33333333333
133.0090986940698,99.53725112395632,74.13276065082424,34566.66666666667
133.33528687647186,99.84593770070649,74.52494112609719,34600.0
133.43780774994647,99.87315350032114,74.52957075572681,34633.333333333336
133.47249138673558,100.05324074074076,74.53399547803619,34666.666666666664
134.34371139115393,100.22310078796365,74.7856574142712,34700.0
134.47239178690344,100.32311320754721,74.75002774694784,34733.333333333336
134.60394006659268,100.20851831298556,74.88743063263041,34766.666666666664
134.40303358613218,100.06186626663332,74.56182459649416,34800.0
134.36841959052143,100.07081145651027,74.50634775120149,34833.333333333336
134.57854821235102,100.11375947995668,74.90271411506515,34866.666666666664
134.5649915270717,100.12920521154541,74.71433730588659,34900.0
134.99491801437554,100.26434748427674,74.95184748427674,34933.33333333333
134.51621099143878,100.2731565865783,74.91052195526099,34966.66666666667
134.66334458995692,100.25341130604288,75.19103313840156,35000.0
134.9309655937847,100.33196448390676,75.21037735849058,35033.33333333333
134.47135052027565,100.26398155011942,74.96768525382313,35066.66666666667
134.93961712457244,100.3925852366766,75.21753282577514,35100.0
134.43369909378757,100.25960803581178,74.97057539032646,35133.333333333336
134.72167052852257,100.1817830740373,74.80282467174227,35166.666666666664
134.41010770505386,99.90726318696491,74.49174261253799,35200.0
134.50495874656218,99.88074006167182,74.40172792177127,35233.333333333336
134.09144566843466,99.61710866313072,74.3455460356317,35266.666666666664
133.91758465932273,99.56499388004896,73.98572011423909,35300.0
133.9720588235294,99.3833605664488,73.77573529411767,35333.333333333336
134.32391588187906,99.38158735450178,73.47612301025086,35366.666666666664
133.95808217662994,98.9770502682077,73.26558093236741,35400.0
133.87106674777414,98.98371398551126,73.24871426201405,35433.33333333333
133.98661831267043,98.92777824632424,72.98071462708386,35466.66666666667
133.9567261399037,98.76505239308977,72.92639478901161,35500.0
134.82475158084912,100.27935862691959,74.29731255645889,35533.33333333333
133.75643338977878,99.5375176970269,74.06493073869474,35566.66666666667
136.492614638448,102.56084656084656,76.8143187830688,35600.0
136.38334938764277,102.44197055180956,76.7688454658043,35633.333333333336
135.7133617247804,102.56952355602877,77.34540857066808,35666.666666666664
134.1781893004115,100.69462277091907,75.20759945130315,35700.0
134.5341531551271,100.93982800175286,75.57416739702016,35733.333333333336
134.05729706154935,100.8658888949463,75.32611895545985,35766.666666666664
133.99784215353077,101.02729675783571,75.70653288018558,35800.0
134.2878315766657,101.20719646679493,75.88175684829436,35833.333333333336
132.41181676210306,100.54325871941697,75.40754815200418,35866.666666666664
133.066528774153,101.08794575064148,75.99604649945017,35900.0
133.40840242346934,101.24986713435374,76.00387967687074,35933.33333333333
133.25575515635396,101.16005322687958,75.9717631403859,35966.66666666667
134.36733707472948,102.09900378614971,76.79866276415778,36000.0
134.31118928063157,102.09999731478744,76.76383555758439,36033.33333333333
134.37708439623,102.099030638275,76.81069251631267,36066.66666666667
134.32359496254128,102.0492736500094,76.75569936360462,36100.0
134.90942244313578,102.4052082770544,77.1287751904479,36133.333333333336
134.84385974390835,102.49073423739802,77.08431033551246,36166.66666666666
135.0463371342513,102.54881131669536,77.22383283132531,36200.0
134.714125320787,102.31148417450814,77.01245722840035,36233.333333333336
134.65189620758483,102.40697272122421,77.02568196939455,36266.66666666666
135.23361421952475,102.35481074050993,76.85853632102311,36300.0
134.1434844306407,101.51551581032959,75.79059680312727,36333.333333333336
132.1453791041699,100.24269367558372,74.8742590588114,36366.66666666666
131.56983299088563,99.22991412465096,73.38944207365259,36400.0
131.53764290606398,99.21669037458513,73.36436436436436,36433.33333333333
128.21903890600925,97.18591101694916,71.93480354391372,36466.66666666667
122.2310774073544,91.8493346687652,66.88427052034149,36500.0
122.1134068627451,90.79125,65.93105392156862,36533.33333333333
119.97461775125862,89.85267107961961,65.1225293678911,36566.66666666667
119.20596175478063,89.16155230596175,64.85565804274465,36600.0
119.17275590551179,89.11754780652419,64.82940382452193,36633.333333333336
117.52881893815935,88.82607856591473,64.08622094519255,36666.66666666666
118.97508785978023,89.27478980381693,64.62920948440767,36700.0
118.63672316384181,89.14,64.08097175141243,36733.333333333336
119.44216166913692,89.44188804013227,64.8459240679512,36766.66666666666
117.6773301475631,89.11097099621689,64.0797106258711,36800.0
117.61718887519802,89.16559584580179,64.14255852842811,36833.333333333336
119.45381526104416,90.67336010709505,65.25227792891998,36866.66666666666
117.77982389298113,89.59584285835237,64.08805350944034,36900.0
117.53690496648909,88.96292318267744,63.88928510053274,36933.33333333333
115.98975732075311,88.31671554252199,63.055590972842026,36966.66666666667
115.96475085854986,88.0095682412147,62.706969912957106,37000.0
115.9647076610726,88.00356379187456,62.71738050497851,37033.33333333333
115.67858056265983,88.06410912190962,62.61157289002557,37066.66666666667
115.63553388347086,87.9616987580228,63.046782528965565,37100.0
113.40276324052752,87.32922907111728,62.056939501779354,37133.333333333336
113.59485793670427,87.45043484880202,62.30629721963194,37166.66666666666
113.40527755613816,87.36496447433413,62.038299327482044,37200.0
113.35868984976742,87.31369633188439,61.972927629070384,37233.333333333336
113.6603910764168,87.54524930164925,62.1651551677955,37266.66666666666
113.514636666284,87.47357746910036,62.079037997933646,37300.0
113.01779292777944,87.34405903506143,62.13507641594246,37333.333333333336
113.40322580645159,87.47579695277176,62.09396253657054,37366.66666666666
113.7501325054895,87.75039751646854,62.634587718634045,37400.0
113.77333989550995,87.74960248353146,62.65346028621185,37433.33333333333
113.28855439867209,87.61751169458277,62.26908857703335,37466.66666666667
114.14191379030953,87.48573975044563,62.269891427645426,37500.0
114.64975579975581,88.04729344729346,62.729039479039486,37533.33333333333
114.6311098332375,87.87488704509981,62.71976916125853,37566.66666666667
116.6538856555974,88.95121533721328,63.28810766860664,37600.0
116.60487197112907,88.88408661282006,63.24828149166524,37633.333333333336
115.99177765145365,88.75546126360241,63.724439662173125,37666.66666666666
115.87448223923685,88.45968787916824,63.373478097150745,37700.0
116.39871423979427,88.36586306653808,63.608528876031286,37733.333333333336
117.12939882697948,89.38336639641193,64.80811195445919,37766.66666666666
115.34429440693506,88.13224139368175,64.09819121447028,37800.0
115.38438776360756,88.16174877052595,64.14541135283821,37833.333333333336
115.37242132867132,86.90729895104894,62.45146416083916,37866.66666666666
115.57338163626171,87.24934230387716,63.18478026480357,37900.0
115.59964759535654,87.88364427860697,63.834307628524044,37933.33333333333
116.03596491228072,88.26019214703426,64.50958646616542,37966.66666666667
117.04224262097729,88.91467635488102,65.06842659672807,38000.0
117.0132639680117,88.9499107853043,65.12109551346819,38033.33333333333
117.32101871101871,89.58896049896047,66.3522869022869,38066.66666666667
118.18848566308243,89.67414874551972,65.69657258064517,38100.0
118.8975241625844,90.3053532812569,66.94856348470806,38133.333333333336
117.54200876053795,89.48004666417204,65.66850828729281,38166.66666666666
118.2113966480447,89.8839776536313,65.93088268156426,38200.0
118.01591111111112,89.73875555555556,65.8243111111111,38233.333333333336
117.93067926225821,89.72019793072425,65.48034188034188,38266.66666666666
117.46745574841042,89.8641304347826,66.2353926791545,38300.0
118.87852743818372,90.8055657689126,66.67051199558783,38333.333333333336
118.80809411337208,90.68958938953487,67.01900890261628,38366.66666666666
118.58056358381502,91.00054190751443,66.77854046242774,38400.0
118.31730942919071,90.79644598988442,66.64039920520231,38433.33333333333
118.8629632994186,91.1355832122093,67.10474200581395,38466.66666666667
119.21933291727342,91.44691768948059,67.211173520098,38500.0
119.18555088702145,91.12845471521942,67.0626283846872,38533.33333333333
118.84180923365362,90.81038200140614,66.6676119053199,38566.66666666667
119.39845933441369,91.18647690175906,67.15820005166866,38600.0
119.3829822212828,91.17968951830713,67.1677587543155,38633.333333333336
119.40818604651164,91.45246511627909,67.38897674418604,38666.66666666666
118.63102995746222,90.99395872929676,67.15404108969138,38700.0
119.27670268911785,91.5298955882017,67.56967259932829,38733.333333333336
120.40257792359972,91.83398172017813,67.97986876025311,38766.66666666666
120.46416473093302,91.39834978706932,67.29331204026326,38800.0
120.50365369725124,91.39738192024777,67.27997967479675,38833.333333333336
121.40346676642972,91.37022072577628,67.37216610549945,38866.66666666666
124.30783994881772,92.6858955562072,67.86828566097087,38900.0
124.69114231704023,92.6702133405347,68.10718336483933,38933.33333333333
128.70059661169586,95.62911577643948,70.60674283784545,38966.66666666667
127.40866057019905,95.1093598708983,70.46589564281872,39000.0
127.77237554112554,95.32989718614719,70.66363636363636,39033.33333333333
126.0634300595238,93.98291347789116,69.38687818877551,39066.66666666667
127.37786869699517,94.58826238924864,69.97127916113475,39100.0
128.14105257487608,95.49229691876751,70.59898190045249,39133.333333333336
128.5940909090909,95.93625668449198,71.19550802139037,39166.66666666666
128.979358594355,96.1263051082806,71.00678255761169,39200.0
128.9840583193143,96.13626532083632,71.00539400251006,39233.333333333336
131.60501322935525,97.44754212505222,72.46946107784431,39266.66666666666
131.64917111704494,97.72232421005785,72.22880507343125,39300.0
131.88459438803363,98.25734250464023,72.9058849219347,39333.333333333336
132.73322259136214,98.9591915836102,73.24401993355481,39366.66666666666
131.7892093023256,98.9065514950166,73.59492358803988,39400.0
131.82407973421928,98.92151495016613,73.63808637873754,39433.33333333333
131.63493829122305,98.8501774458393,73.57111075798505,39466.66666666667
131.7669590643275,98.70712387028178,73.54032429558745,39500.0
132.4058551198257,98.85095315904141,73.40476579520697,39533.33333333333
132.74753161974704,99.07071943424452,73.82069903440772,39566.66666666667
132.67363073244948,99.04485437948273,73.6542871114975,39600.0
132.64605520539013,99.02809171919148,73.61459465333624,39633.333333333336
132.87220820103664,99.07804825097016,73.79950609243127,39666.66666666666
132.85418871611168,99.00059703112707,73.80246411028793,39700.0
133.51511640737064,99.08592629372171,74.00173783515392,39733.333333333336
133.77922584238374,99.22458925090505,73.92135895293791,39766.66666666666
134.59807692307692,99.43973416289593,74.25933257918551,39800.0
134.57847850678735,99.41348981900451,74.21216063348416,39833.333333333336
134.82661336379212,99.61347801256424,74.03438035408338,39866.66666666666
135.99178010318593,100.07808901973358,74.43052438277904,39900.0
136.05307954644826,100.37479231643688,74.56565715451656,39933.33333333333
137.029076702851,100.79005129428606,74.92624955266609,39966.66666666667
136.45681320286258,100.63569446472908,74.65590769680152,40000.0
136.50505436379666,100.60714075815456,74.5744637084925,40033.33333333333
136.52278044215694,100.63162358170547,74.73695753889344,40066.66666666667
135.885582010582,100.55374396135264,74.67184265010351,40100.0
136.47195464144176,100.70866961728716,75.01478203014261,40133.333333333336
135.78248748293126,100.55877332726445,74.76351274465179,40166.66666666666
136.46628857669276,101.01782012897283,75.08984914785812,40200.0
135.95759284575072,100.75458532695372,74.91606858054227,40233.333333333336
136.4079870167507,101.57462470295022,75.68988002086594,40266.66666666666
136.88160670338684,101.62026836985821,75.79005039259346,40300.0
138.95455357142856,103.74205357142857,77.70833333333333,40333.333333333336
142.29960529939112,106.31511795122849,80.32705076033413,40366.66666666666
140.17879053461877,105.42880514168856,79.50356412503652,40400.0
140.06928938507886,105.06970287672043,79.09442376986237,40433.33333333333
139.5670792431356,105.3819604495661,79.85198463508324,40466.66666666667
139.41105266134963,105.46965326093105,79.78641325866847,40500.0
137.84681679177092,104.2507089241034,78.76146788990826,40533.33333333333
134.66446819168476,101.21119274224968,75.73256525852953,40566.66666666667
136.53554864253394,102.5633201357466,77.17618778280543,40600.0
136.51973981900454,102.56747737556564,77.15155542986426,40633.333333333336
136.11961789506122,102.47130010925287,76.92755693755778,40666.66666666666
136.32751153911906,102.36272722092428,76.84038976579862,40700.0
135.92671876769737,102.14146562464606,76.5960188016763,40733.333333333336
135.56787317620652,102.007519640853,76.71509539842873,40766.66666666666
134.71060275962236,101.5573152337858,75.98312943410983,40800.0
134.69990503323837,101.54128260991008,75.96232054075192,40833.333333333336
135.22141409654944,102.00696777059102,76.51664214529606,40866.66666666666
134.72536143913476,101.77265202516277,76.13577419710849,40900.0
136.1879326841898,102.55589013339338,77.00554398604154,40933.33333333333
134.7139388588456,101.41518596181436,75.79712504138615,40966.66666666667
134.327633037694,100.74271064301551,75.15019401330376,41000.0
134.60521773025948,100.92941864350149,75.29184764450383,41033.33333333333
134.30236728837878,101.02941176470587,75.30120847588566,41066.66666666667
133.93645142148137,101.04636672600745,75.81839024653397,41100.0
130.72033769394585,99.5037775073522,74.40832572761383,41133.333333333336
128.4287666467899,97.64323693102764,72.84098588749751,41166.66666666666
124.93323724838771,94.72329978503029,69.76548759038499,41200.0
124.92920656634745,94.73627125268713,69.75525210084034,41233.333333333336
123.01693831138066,93.29932246754478,68.67776935468588,41266.66666666666
122.67677824267784,92.54514936265447,67.56808893646007,41300.0
119.78440314673357,90.82964314217308,66.36807661612131,41333.333333333336
116.42475380677628,88.75458765346407,64.51234219773545,41366.66666666666
117.73577591036415,89.08800000000002,64.60674509803921,41400.0
117.69322128851542,89.08887394957983,64.6018599439776,41433.33333333333
117.46476127174034,89.1341309405118,64.24435582142462,41466.66666666667
119.9027058014217,90.50513643659711,65.82309103416648,41500.0
119.59808245890983,90.62343300213577,65.37937598662829,41533.33333333333
119.69577517917769,89.88593926820066,65.01945020746888,41566.66666666667
119.60456445331054,89.9747553908996,64.57580507267028,41600.0
119.58105594505652,89.96208327371582,64.57182715696094,41633.333333333336
118.36386040780263,89.17067726860571,64.33084559763779,41666.66666666666
116.45022246941043,87.77210789766407,62.84162958843161,41700.0
115.95457853796115,87.52924987490333,63.09350407132785,41733.333333333336
118.82703659976387,90.35923167741348,64.98244936881301,41766.66666666666
117.39137140842588,89.74744403313944,64.75493566014454,41800.0
117.39408161466595,89.74301515952759,64.76742904988542,41833.333333333336
115.9462116830538,88.51470391956222,63.44799127997509,41866.66666666666
116.14993197278912,88.17836734693876,63.630136054421776,41900.0
114.88038449445268,87.78920181467008,63.033867852490694,41933.33333333333
115.113110311431,87.73161846372562,63.55522235550225,41966.66666666667
115.736887121755,88.03878961603365,63.32326221133175,42000.0
115.73492221271871,88.05573406689938,63.333918953281405,42033.33333333333
116.10927006009192,88.61925592082008,64.27553905973842,42066.66666666667
115.02942577516023,88.41115970899011,63.796401351117275,42100.0
113.58908770161293,87.36590641801077,63.40587197580646,42133.333333333336
113.02491537983936,87.83851068517296,63.75308938692944,42166.66666666666
114.15096691018478,87.41186076493338,63.577653631284896,42200.0
113.98636560069143,87.14228608470181,63.34390665514261,42233.333333333336
117.79937548790008,89.32330698672912,64.47511709601875,42266.66666666666
116.22633054508688,88.64029322548029,64.22628458498023,42300.0
115.42917426756632,88.64629991867952,64.2253895690015,42333.333333333336
115.59202593045923,88.2583752663312,64.26961784305726,42366.66666666666
116.69098672607443,88.98022834864939,64.84911352455211,42400.0
116.41801353778143,88.88739236542801,64.73935165998988,42433.33333333333
117.569165085389,89.01631878557875,65.35075901328273,42466.66666666667
117.68995653817085,89.2503306878307,65.32556216931215,42500.0
117.73625710639286,89.51019839888619,65.70701937579766,42533.33333333333
119.33433325521445,90.83618467307241,66.91556128427467,42566.66666666667
120.47848537005163,90.75856896975657,66.72724366855175,42600.0
120.52913695598721,90.7822227686255,66.77656749446766,42633.333333333336
125.03011984861229,93.68986543313707,68.84968986543313,42666.66666666666
125.82218944608324,93.50955970719984,68.86135693215338,42700.0
127.17290709510578,94.77762799526808,69.82436930864672,42733.333333333336
128.84636546697297,95.6291726934967,70.50611191468846,42766.66666666666
128.13880194279548,95.975580140313,70.85507285483001,42800.0
128.15893146249326,96.01017269293035,70.87552617377227,42833.333333333336
130.07839554985958,97.55517683309246,72.38450631254601,42866.66666666666
128.96557466557468,96.77119847119849,71.6040404040404,42900.0
131.4556166314306,98.45181113460184,73.14672304439745,42933.33333333333
131.94800022757013,98.83245149911815,73.22708653353816,42966.66666666667
132.53953997809418,100.10065717415115,74.77825848849945,43000.0
132.59884994523551,100.12207009857613,74.81204819277109,43033.33333333333
134.44910179640718,101.83991087592258,76.15220721348004,43066.66666666667
134.23588826200634,101.75183707169396,76.19416540525664,43100.0
133.15747326273643,101.8102312839155,76.19793477688215,43133.333333333336
135.17784505297922,102.87631760011007,77.19507362047612,43166.66666666666
136.42419938735728,104.14163185742132,78.26223893065998,43200.0
136.37671080449542,104.061310782241,78.15544675642596,43233.333333333336
138.17026011560694,104.63927745664742,78.59661849710983,43266.66666666666
138.19971979184535,104.98561788757362,79.0683364785269,43300.0
139.72873658133776,105.77503833903505,79.95738468797923,43333.333333333336
140.59011832239926,107.0303713683224,81.12696227741331,43366.66666666666
141.70557705840955,108.31277855969972,82.62291813277035,43400.0
141.757095941825,108.33133943232464,82.67241379310343,43433.33333333333
142.5506787330317,108.87849170437408,83.02705882352943,43466.66666666667
142.71291044547326,108.406689763007,82.65349357696905,43500.0
143.20237012885227,108.61613944885099,82.60450826096499,43533.33333333333
143.85163728740048,109.36333219740385,83.59137519749683,43566.66666666667
143.38088997256938,109.27805547089302,83.31709844559586,43600.0
143.35736056080464,109.26507162450471,83.3042060347455,43633.333333333336
144.63389933292905,110.74111582777441,85.16058217101273,43666.66666666666
144.49900793650792,110.57564484126983,84.55974082341271,43700.0
143.92957062661205,110.45744196631772,84.65607646791078,43733.333333333336
145.6640625,112.37506056201548,86.40918725775194,43766.66666666666
144.77707943710337,110.7561087776313,85.11622773400373,43800.0
144.7942483980746,110.75242971456603,85.1271116289052,43833.333333333336
144.02593285835042,110.71558386668276,84.67739403453689,43866.66666666666
143.69157957599282,110.63475664377424,84.58456255598686,43900.0
144.01751493280238,110.3233262817322,83.90505226480836,43933.33333333333
144.05835055541203,109.01327176440195,83.00852492895892,43966.66666666667
144.67549097664542,109.24588641188959,82.55606422505308,44000.0
144.60413349256902,109.2626393312102,82.52166268577494,44033.33333333333
145.07137435962304,110.42846752261083,83.71105559420656,44066.66666666667
143.85135732323232,109.51934974747476,82.72796717171718,44100.0
144.69252271139064,110.00832221586936,83.24566418906042,44133.33333333334
143.4991708126037,109.65524230698358,82.62136846631043,44166.66666666666
143.49981595092027,109.45478527607362,82.62226993865029,44200.0
143.47039877300614,109.42414110429449,82.64386503067485,44233.33333333334
142.4935005770516,108.71888477191278,81.8603231488793,44266.66666666666
140.03657900834105,107.07058039851715,80.71318929564411,44300.0
135.8438054871413,103.00034366229453,76.54805544418352,44333.33333333334
136.43153996211586,103.35664810155212,77.62692601283538,44366.66666666666
135.73542316289078,103.51248654764204,77.47669637683158,44400.0
136.13959058626932,103.74151232418885,77.68558696560369,44433.33333333333
135.24116903807067,103.02400703180795,77.27119156183048,44466.66666666667
135.29135254988913,102.95498891352553,76.90690133037694,44500.0
132.92632476809894,101.00141273056828,75.6683015246828,44533.33333333333
127.61763518966907,97.30700161420499,72.02189265536722,44566.66666666667
126.210407587798,95.10484491156113,70.08418354268136,44600.0
126.19415534478338,95.0990258907972,70.08828505511407,44633.33333333334
125.405507949618,94.78951579599422,69.18353809622135,44666.66666666666
122.74402250351618,92.73749246534055,67.38939119951779,44700.0
121.1748229702202,92.04731302745176,66.62135027645746,44733.33333333334
120.62684645286687,91.50308551992224,66.23440233236151,44766.66666666666
119.99701240649513,92.42152435686918,67.25722952016055,44800.0
119.96939427111843,92.44344097792371,67.24911056376573,44833.33333333334
121.11145104895105,92.78121549503128,67.83968991534779,44866.66666666666
119.09620195065979,90.87779690189328,65.52417670682729,44900.0
119.36643684564848,90.84276992362513,65.49650625623883,44933.33333333333
118.5568154804355,89.77143060904294,64.21941710645177,44966.66666666667
117.38508064516131,88.38550759013283,63.42542694497154,45000.0
117.0061894637373,88.11882825419325,63.294873612095444,45033.33333333333
117.5568225650916,88.61294599807138,63.18088235294118,45066.66666666667
117.51020408163264,88.40580021482279,63.4359708795799,45100.0
119.13435871064257,90.74086627241064,65.27086790865104,45133.33333333334
119.24008495313728,90.85784200563276,65.36506763931854,45166.66666666666
117.11250562303194,89.48535762483131,64.2751012145749,45200.0
117.12249212775528,89.50292397660819,64.2733918128655,45233.33333333334
116.52193130062149,88.68867649368424,63.835117004330165,45266.66666666666
116.94820707944193,88.65566701256775,63.61720281332872,45300.0
116.80010105185801,88.06949611869,63.64703045335538,45333.33333333334
116.66929603301996,88.37064893373079,63.585897729878475,45366.66666666666
116.01205644003798,88.25459844988626,63.651202331795,45400.0
116.01437498619913,88.28080906220328,63.687437896084965,45433.33333333333
116.74022131887985,88.78927280939476,64.06770551038844,45466.66666666667
116.56898632782496,89.01942195009545,64.68848069875129,45500.0
116.91566292967664,88.18986843324377,63.193366070601314,45533.33333333333
118.01604265174178,88.40905143298274,63.73082119077488,45566.66666666667
115.97579965850882,87.60284575981787,63.16250426863973,45600.0
115.98761525327262,87.6499032441662,63.19162208309619,45633.33333333334
117.17015550239236,88.64540393816709,64.3647865292602,45666.66666666666
116.64549683988764,88.98130266853933,64.84693205758428,45700.0
116.1054121279698,88.58225405266319,64.71365468736599,45733.33333333334
118.00518912712255,90.00841301035616,65.94022567182635,45766.66666666666
119.151631128121,89.96605613267721,66.34094222708221,45800.0
119.25574084199016,89.9944414069619,66.42204301075269,45833.33333333334
123.24934422921707,92.18911420500405,67.25963478611783,45866.66666666666
123.51100288600288,91.98907441764584,67.10897237682951,45900.0
125.26912914817163,93.2215704924963,68.29679243288945,45933.33333333333
126.54875158027815,94.10935524652339,69.50442477876106,45966.66666666667
125.62985229334022,93.85322622441046,68.9321326768593,46000.0
125.83378448724623,93.99906298802706,68.96423737636647,46033.33333333333
129.0852266638088,96.31912442396313,71.22947701211018,46066.66666666667
130.80342806344973,97.40514487318389,71.68433480567826,46100.0
131.67405167674548,98.55849367784498,73.19956019791094,46133.33333333334
133.16234725774368,99.2769820971867,73.52452401250356,46166.66666666666
132.8207560368225,99.12795545482523,73.72363524441087,46200.0
132.6253968253968,99.06786410470622,73.66009468114731,46233.33333333334
133.06538039773568,98.2430277703684,72.2916036869091,46266.66666666666
132.6180149168101,98.36153184165232,72.95642570281125,46300.0
133.52400793650796,99.47602040816328,74.0234410430839,46333.33333333334
134.52497334306076,100.35366743363824,75.06602502946293,46366.66666666666
136.22324792223853,101.66752940499813,76.04457481379231,46400.0
136.0646998225834,101.56750414925884,75.95750586619356,46433.33333333333
138.5645141895142,102.84102934102934,77.32004569504569,46466.66666666667
138.1835016835017,102.9534231200898,77.27695079449465,46500.0
139.3408343792959,103.28620524774372,78.11502599964138,46533.33333333333
140.0362399505257,103.67711811997526,77.90318491032777,46566.66666666667
139.46326636067965,103.26806285905346,77.69941335602904,46600.0
139.26187019899595,103.21469182846428,77.71212121212122,46633.33333333334
140.22976726958453,103.74220630903143,77.85529970985863,46666.66666666666
140.23045242193265,103.51475288910746,78.0530181952299,46700.0
140.3097331338072,103.8557488464896,77.94843496695349,46733.33333333334
140.2003566816309,104.1039603960396,78.31972203431523,46766.66666666666
140.32554625404214,104.67623681586029,78.75188128985464,46800.0
140.32346096890205,104.67149203662848,78.72848983045725,46833.33333333334
141.276012575161,104.64111955559623,78.92479321185483,46866.66666666666
141.9897391637898,104.42689553765504,77.94393300089503,46900.0
143.30864812681008,106.45794276104759,79.95322475164274,46933.33333333333
142.74470312884947,106.41475732939148,79.69352057156935,46966.66666666667
143.1493245710113,106.89314835097969,80.70710113179993,47000.0
143.16380674212,106.87136424485821,80.79387245953511,47033.33333333333
141.4182954276238,106.29824093816632,79.81310708362949,47066.66666666667
139.7663972021557,105.32688338493291,79.1867618392386,47100.0
137.95377598701694,104.1711855396066,77.95780519880243,47133.33333333334
138.32400162290614,103.729206514809,77.60896655654089,47166.66666666666
137.9265402843602,104.00685205276079,77.82438759778452,47200.0
137.88151658767774,104.04282532975503,77.80129046993663,47233.33333333334
135.90945232137892,102.5857103141507,76.78231859883236,47266.66666666666
136.5079001019368,102.9355249745158,77.21936232868954,47300.0
135.19815668202764,101.157111371898,75.67959469902968,47333.33333333334
130.1236293859649,97.20625,72.09797149122807,47366.66666666666
129.18871699119765,96.70613496932516,71.81037610029341,47400.0
129.15612163243532,96.67882101893835,71.85052013870364,47433.33333333333
127.50346139216431,96.49666539875744,71.88383415747433,47466.66666666667
126.646719411409,95.58685244910299,71.72717194114091,47500.0
124.87051310833395,94.88493102846168,70.79193793808777,47533.33333333333
125.01275542421257,94.92437675229219,71.03402288398878,47566.66666666667
123.85524707525757,94.32193369752301,70.25690338995734,47600.0
123.84714011324805,94.3317867744269,70.2698745291726,47633.33333333334
122.85795091239979,93.62977718754613,70.14150804190645,47666.66666666666
123.46744698225731,94.61550072999924,70.74014501002203,47700.0
123.17855214723926,94.72696932515338,71.10512883435581,47733.33333333334
124.33831142970928,96.04042214257272,72.35877140581441,47766.66666666666
123.60933391761611,95.80626156393028,72.29141104294479,47800.0
123.93543013913383,96.03061924358221,72.47533313737017,47833.33333333334
124.3357300613497,96.51104294478529,72.95860122699386,47866.66666666666
124.67256571087215,96.51426224611707,72.86930007964953,47900.0
124.97294129383008,96.74335378323109,72.96930021447453,47933.33333333333
125.12576687116564,96.67047168862517,72.71125414864728,47966.66666666667
125.72177055103884,97.25725183177755,73.10734718458295,48000.0
126.06021358782093,97.50915196041305,73.32237622762503,48033.33333333333
124.88337204800621,96.83442218350756,72.91734417344173,48066.66666666667
124.21353092455375,95.073409212436,70.55302625213251,48100.0
123.9939,94.9629,70.73310000000002,48133.33333333334
124.26560296846012,95.08512059369205,70.48148423005566,48166.66666666666
125.74716459197788,95.03832516031687,70.7017980636238,48200.0
125.74019866716962,95.04275116308314,70.7633094429775,48233.33333333334
126.46537693843085,95.13874814473616,70.09578279338757,48266.66666666666
125.73607182388388,94.62902472020664,69.88601648013774,48300.0
122.65018735362995,92.70058548009372,68.47765807962529,48333.33333333334
123.14934394810557,91.49422576047962,67.2454420364637,48366.66666666666
123.82541342896992,91.60911038055391,66.97561765291891,48400.0
123.62788740065857,91.49424376717586,66.82736253125697,48433.33333333333
122.72638677087305,91.08516012199772,66.76484464353793,48466.66666666667
120.66698179035272,90.188759087942,65.91619960834628,48500.0
120.44028563317538,90.34428842836245,66.32011442796934,48533.33333333333
120.9579347826087,90.82545652173914,66.78073913043478,48566.66666666667
120.24319772528429,90.03807961504812,66.21498250218723,48600.0
120.36561089976114,89.91245686985756,66.08400424666019,48633.33333333334
119.9351486450934,90.01258440761202,66.12856265894939,48666.66666666666
120.11015279541176,89.92999430848036,66.50203581279278,48700.0
119.08837577865332,89.51240342497414,65.67566199291232,48733.33333333334
120.00792569378208,89.73727119952764,65.8624926193396,48766.66666666666
120.73339172618246,91.21740106903832,67.11247361092396,48800.0
120.7602075192023,91.2210618515025,67.12511790863765,48833.33333333334
118.4350507516382,89.63621568375521,66.24814767227718,48866.66666666666
117.40523255813952,89.22405254091301,65.35254091300602,48900.0
119.20600085533572,90.38494609134085,66.52742701510343,48933.33333333333
120.60599581580341,91.72386601374808,67.48010207600524,48966.66666666667
121.42517374154772,92.22220135236664,67.97044045830204,49000.0
121.42970510894064,92.23079451540195,67.98325976709242,49033.33333333333
120.29515670821114,91.86675219941351,67.63840267595307,49066.66666666667
118.77924763170664,91.57258898242505,68.16712028187438,49100.0
118.89970575872215,92.25954182429592,68.4277217318201,49133.33333333334
119.02786116114113,91.79623329553287,67.73195028127988,49166.66666666666
118.65668713209698,92.20347279363672,68.20921155347385,49200.0
118.6500630517024,92.26881042454815,68.21927280369904,49233.33333333334
118.75327358942008,91.35552703702093,67.34752251272458,49266.66666666666
120.27750764101141,91.63705195887749,67.17861442993424,49300.0
120.7048494201272,91.31210250654695,67.42915263748597,49333.33333333334
120.59431728492504,91.86882399368588,67.65249746307363,49366.66666666666
118.72925627240143,89.60560035842295,65.6222670250896,49400.0
118.73286290322581,89.61552419354837,65.70761648745521,49433.33333333333
119.9979816102265,90.6443372953577,66.44978694774613,49466.66666666667
120.93724537037035,90.54104166666666,66.36699074074073,49500.0
121.12503473186995,90.4481800500139,66.15069000648329,49533.33333333333
121.76719967750608,91.3081384932366,67.26511690405805,49566.66666666667
122.57268691912886,91.48654459703148,67.20395801544366,49600.0
122.69279877425943,91.51738787259727,67.18864332807131,49633.33333333334
123.47433236151606,91.4808862973761,67.72548104956269,49666.66666666666
123.1332180329759,91.78849302432836,67.71919750951228,49700.0
123.86852459016391,92.28922716627636,67.81224824355972,49733.33333333334
124.79739181979843,93.02143449911085,68.31051570835803,49766.66666666666
123.48340524781342,92.13896209912537,67.99598833819242,49800.0
123.50208746355685,92.17485714285715,67.98819825072887,49833.33333333334
124.65148904750185,92.9081466896382,68.09424070883583,49866.66666666666
125.53219246031746,93.75768849206352,69.26272321428571,49900.0
127.83204134366925,96.61719837010534,71.8258547008547,49933.33333333333
125.62166925137457,95.72026411015554,71.34576342873255,49966.66666666667
129.95086720032842,98.32774014778325,72.95633210180623,50000.0
129.94986658456486,98.33299979474549,72.95933394909687,50033.33333333333
129.00187168555686,97.01460954559636,72.11344494124988,50066.66666666667
128.4795987317428,97.34167576277352,72.22121731898747,50100.0
128.32894190871372,97.38278008298755,72.43438796680498,50133.33333333334
127.69026915113872,97.10005175983437,72.04034679089027,50166.66666666666
127.58938802413428,97.58446990822898,72.64741672159407,50200.0
127.59055417532831,97.58497693048729,72.62546265781069,50233.33333333334
126.95778082609355,97.02857796067673,72.02862876594014,50266.66666666666
126.92390543782489,96.95469312275092,72.40193922431028,50300.0
127.25836524894173,97.36272928844991,72.44345898004434,50333.33333333334
127.80447012702696,97.27502991115749,72.47363999694525,50366.66666666666
126.95881524690736,96.76850548124308,71.9660313788595,50400.0
126.94556471889773,96.78603037312679,71.93611083174092,50433.33333333333
127.71171657919108,96.22085005660185,71.53035916435114,50466.66666666667
127.11943450606243,96.22915424368912,71.42046809779367,50500.0
123.61460674157304,94.2672322861729,70.27991286402201,50533.33333333333
123.37588837297452,92.90092864588269,68.38932057234909,50566.66666666667
124.0041729536024,93.16149566201432,68.70596001508865,50600.0
123.77453467694131,92.8125666864256,68.30288085358626,50633.33333333334
122.52498856881573,91.95754458161863,67.55960219478737,50666.66666666666
122.88464187327824,91.9654958677686,67.64104683195592,50700.0
122.65076741440376,91.3860212514758,66.91322314049586,50733.33333333334
123.27968918111178,91.38412432755527,67.22751942618049,50766.66666666666
127.2001754385965,94.40924812030077,69.20263157894738,50800.0
126.84556456643793,94.20920773549592,69.05754210854647,50833.33333333334
126.24271990018715,93.75922645040548,68.84389270118527,50866.66666666666
121.98599760813237,90.23913693442292,65.63897747657964,50900.0
126.9785872313527,93.78800568900128,68.71620838600927,50933.33333333333
121.00270018621971,91.1383147113594,66.93857076350093,50966.66666666667
120.44500244123596,90.50003487479948,66.18737067261864,51000.0
120.52451323714806,90.54234953541578,66.23040108325162,51033.33333333333
120.26450543378157,90.81925769018237,66.47517959108491,51066.66666666667
125.86446886446888,94.13350751812293,69.06572914265223,51100.0
122.18833432128037,92.62959098992292,68.0631653823355,51133.33333333334
122.59848484848486,93.25650707704,68.8728032677876,51166.66666666666
122.56745096190114,93.67868257261412,69.20989720860052,51200.0
122.58428423236515,93.70362599019238,69.18497736703132,51233.33333333334
121.85131818181816,93.72397727272728,69.79495454545454,51266.66666666666
120.41335921603479,92.40928970694857,68.12147718502234,51300.0
119.95128790038972,91.65530843075753,67.43144663054842,51333.33333333334
119.64509715746372,91.72807744195404,67.24692906676765,51366.66666666666
119.10574943862277,91.28071201347305,66.92802675898204,51400.0
119.0940072979042,91.27916822604791,66.92744199101797,51433.33333333333
119.53673750118584,91.45432122189544,66.97896309648041,51466.66666666667
120.5701581027668,92.32359307359309,68.0261387163561,51500.0
120.08720766413073,91.68432422278576,67.38463886540809,51533.33333333333
121.22981410529304,91.75873894328556,67.79906343124733,51566.66666666667
121.7431567381646,92.15016958868773,67.71062437299956,51600.0
121.73687479099985,92.17785315052788,67.71406391821526,51633.33333333334
121.02189864709929,91.81630360009173,67.6942673698693,51666.66666666666
119.85636929741436,90.85855782681288,66.52689409322684,51700.0
125.02405608166276,93.29927438199483,68.72040339441642,51733.33333333334
126.21093312992626,93.88037121789982,68.85560640732264,51766.66666666666
127.10570254302596,94.29165168250708,69.25866940662728,51800.0
127.14492679167738,94.31756999743128,69.30339070125868,51833.33333333334
126.67827764801464,94.26147557631764,69.05539758302021,51866.66666666666
127.95982142857142,94.80050061932288,69.57749277456647,51900.0
127.50458574181118,94.41490044958252,69.17243416827232,51933.33333333333
128.55712771595122,94.64271330153684,69.32808691043985,51966.66666666667
126.2200774116713,93.98709805478364,68.8462931718936,52000.0
126.48531163159984,94.2014192139738,69.0648570861453,52033.33333333333
128.05023604269292,94.89467877668308,69.60101087848932,52066.66666666667
128.09406565656565,95.43348484848484,70.05558080808079,52100.0
127.89820553025213,95.34936160680952,70.26411807162945,52133.33333333334
129.25413924310985,96.17541649526943,70.79123817359113,52166.66666666666
129.18166804293972,96.03251445086704,70.82006090008257,52200.0
129.19751238645748,96.07620251857969,70.88617361684558,52233.33333333334
129.57241781655844,97.04411018668831,71.74551034902598,52266.66666666666
131.88757536041942,98.42608125819136,73.188623853211,52300.0
133.04964140441018,99.54680475272959,73.6948190965532,52333.33333333334
134.940799866966,100.54701920678473,74.72279038829298,52366.66666666666
136.46960490657534,101.5245186136072,75.70919982884038,52400.0
136.69501777319115,101.66603600504529,75.73480678821235,52433.33333333333
137.63127446465577,102.5139592447617,76.84641952567351,52466.66666666667
138.23156013826238,103.12818559962506,77.41156482512156,52500.0
139.70108268311859,104.13684751708703,78.3706828766709,52533.33333333333
140.2153864859114,104.78060123408008,78.91729231891547,52566.66666666667
141.24877059257437,105.16295795426605,79.78946397836243,52600.0
141.26579788541926,105.17285468404228,79.82726825670026,52633.33333333334
140.64615945773429,105.53083680355026,79.76315389525517,52666.66666666666
140.82452501202502,105.95078763828764,80.40235690235691,52700.0
140.06691687760028,106.17596229379421,80.70617671874545,52733.33333333334
140.2805859533322,106.47594233107522,81.02996352266807,52766.66666666666
140.4161403508772,106.53669590643277,80.8630701754386,52800.0
140.329649122807,106.61190058479531,80.8098538011696,52833.33333333334
140.85352357023208,106.53688083273512,80.80031107920556,52866.66666666666
141.51113172541744,106.38546691403835,80.39879406307978,52900.0
141.42861968370946,106.03522186396437,80.17758329494856,52933.33333333333
139.8859553620033,104.45735801125024,78.34506744087582,52966.66666666667
139.29785205707987,103.54690618762476,77.49256710459677,53000.0
139.3135222093127,103.52241785086544,77.44251794917628,53033.33333333333
136.40217209690894,101.92553606237816,75.70788081314397,53066.66666666667
133.43877199034148,99.52023244089472,74.22068617825775,53100.0
131.1075919888216,98.1589297728096,72.30828546291984,53133.33333333334
129.1398293421415,96.56940169656932,71.18962540349823,53166.66666666666
129.8260981912145,96.48894056847544,70.56981912144703,53200.0
129.43126157645605,96.28624717019964,70.43313953488372,53233.33333333334
130.34969664996044,96.3522289633342,70.50759694012135,53266.66666666666
128.74271969541059,95.59163408108664,69.60768676682444,53300.0
125.56794207901802,93.9293968162639,68.53303605677023,53333.33333333334
120.4128068730664,90.99942130917671,66.18271049878696,53366.66666666666
120.37245538516727,90.61395838938213,65.82900636714196,53400.0
120.29351733994328,90.60358187624216,65.83796699493088,53433.33333333333
118.82290099973459,89.70598513668938,64.89007343183226,53466.66666666667
119.06429131652662,89.44026890756302,64.5960112044818,53500.0
118.93060145406479,89.77836527869577,64.62134831460675,53533.33333333333
119.1848026886866,89.5928687484698,64.8343831378397,53566.66666666667
120.61181984453586,90.92082761774121,65.34181527206219,53600.0
120.57354823959764,90.90619570187471,65.33079561042524,53633.33333333334
118.37502200316843,89.66286745291323,64.49496127442352,53666.66666666666
117.930082735797,89.4165471594043,64.1877330391616,53700.0
119.72143765325585,90.17816274634457,64.93626827717736,53733.33333333334
119.84233241505969,90.3269054178145,64.36971992653811,53766.66666666666
117.8687646761911,89.24950073518116,63.65174358636733,53800.0
117.90375956284151,89.2903606557377,63.72122404371585,53833.33333333334
117.16624213528401,88.88581194348292,63.24546622254153,53866.66666666666
116.83121860384549,88.64407587043131,63.22364888272995,53900.0
116.62331455879844,88.81959378733573,63.34464072367299,53933.33333333333
117.07807108350586,88.9777648378192,63.476966873706,53966.66666666667
118.24376424617388,90.02064474112667,64.36174970150874,54000.0
118.20028220992077,90.07537175729946,64.37110604580485,54033.33333333333
120.35086661306174,91.25991691235592,65.40998838559814,54066.66666666667
118.92393795170105,90.40820553499027,64.77954785827605,54100.0
119.0964011411016,90.67502743032698,65.38051349572088,54133.33333333334
119.0560271646859,90.7026250489748,65.35594880501502,54166.66666666666
120.62124176392544,91.43378533360321,66.10800782567631,54200.0
120.63347500505972,91.4470080280645,66.13634217095057,54233.33333333334
120.36058500249807,91.20747604124088,65.53726665758278,54266.66666666666
119.21801146384479,90.43428130511464,65.37508818342152,54300.0
118.04776812334951,90.09082971292273,65.09287418008347,54333.33333333334
119.30157127808987,90.43850948033709,65.6024841994382,54366.66666666666
118.66029636979358,90.14779663941677,65.41851987662044,54400.0
118.69551994133002,90.190893207653,65.47626237570373,54433.33333333333
119.62873601417972,90.30045419297664,65.81679406225767,54466.66666666667
120.9809973588791,91.17939478042885,66.61797752808988,54500.0
120.69525401069521,90.85463458110516,66.69431818181818,54533.33333333333
121.64186088773796,91.37717504883922,67.03609558856935,54566.66666666667
129.64901884340478,95.71404808317087,70.47345029239766,54600.0
129.74617283950616,95.74567901234569,70.50825211176087,54633.33333333334
129.82236408240786,95.59711414176051,70.25107494262576,54666.66666666666
129.89496116936434,95.65253771932116,70.68925032032006,54700.0
132.4625668449198,97.64347593582887,72.18655080213904,54733.33333333334
132.77204074464348,97.75266812569237,72.64913133933155,54766.66666666666
131.9175255028453,97.99090027010729,72.82146697086513,54800.0
131.98916948574725,98.0653764455983,72.82602994781423,54833.33333333334
133.42978329809722,99.250766384778,74.24254756871035,54866.66666666666
134.4689617782597,100.2246679316888,74.9492545405259,54900.0
135.95401822700907,101.30110466721901,76.04346865506766,54933.33333333333
137.84256168877477,102.73664241905577,77.1427756382827,54966.66666666667
138.78097807170204,103.41277990486135,77.94262675484394,55000.0
138.83342035038868,103.47206752523495,77.9555342847198,55033.33333333333
139.54125730994153,104.37757309941523,78.69804093567251,55066.66666666667
141.71463323353294,105.5958083832335,79.63688248502993,55100.0
142.8947928765002,106.49196670538132,80.50635565879467,55133.33333333334
142.39608871477316,106.54530519398459,80.83328067736636,55166.66666666666
142.87974967907576,107.36729781771506,81.20433247753529,55200.0
142.9535622593068,107.43443517329912,81.20507060333762,55233.33333333334
142.91291022857868,107.68512961307623,81.77512450517175,55266.66666666666
144.11989553656218,107.67029575362908,81.20051553384887,55300.0
145.25066340782118,108.11759776536312,81.76840083798882,55333.33333333334
145.8262890652936,108.59057426875492,82.06039476507188,55366.66666666666
146.78336627864408,109.06091221904973,82.52368401786369,55400.0
146.81905703199357,109.141847865876,82.54542792298119,55433.33333333333
146.56083900724795,109.1891426898016,82.34629182224175,55466.66666666667
146.18343216531898,108.81261455525606,82.24805031446542,55500.0
145.57552499733504,108.46832249582485,81.91944710940555,55533.33333333333
144.78736187845303,107.87596685082872,81.63359806629835,55566.66666666667
143.45807453416148,107.73242368177614,81.69489229549359,55600.0
143.13276808307864,107.56340990502486,81.51280028919781,55633.33333333334
142.45553952220618,106.69725829725829,80.87269520602855,55666.66666666666
141.9710596473196,105.76478334885813,79.70022162978191,55700.0
139.6505604947816,104.38625078052986,78.65962950848919,55733.33333333334
139.55859177544528,104.10190003270792,78.21197704498827,55766.66666666666
137.6515736214733,102.58288311465569,77.11805734213759,55800.0
137.47416932180244,102.5842626308603,77.15407373691397,55833.33333333334
137.26396344945746,102.16630496858936,76.36670474014849,55866.66666666666
135.3758812920151,100.90099469858448,75.49816909875936,55900.0
134.81857204955446,100.27743968702455,74.72177244077375,55933.33333333333
134.23664142779882,99.51603569497028,74.1113304488913,55966.66666666667
133.53826530612244,98.6309249506254,72.85176651305684,56000.0
133.70946318342152,98.7490906084656,72.91644620811287,56033.33333333333
133.37403556771542,98.302024623803,72.58051983584132,56066.66666666667
132.0661600237152,97.55984046136848,71.79082113886868,56100.0
133.36915887850466,97.44932131731196,72.11512572318647,56133.33333333334
132.05211545406559,96.91074256188016,70.82431869322444,56166.66666666666
132.40603383615306,97.39525516015223,71.56679723310278,56200.0
132.2160039816402,97.35071614223305,71.53854448929934,56233.33333333334
131.6238030095759,97.25633378932969,71.49277701778384,56266.66666666666
132.84407205697528,97.74218684541263,72.38840944002234,56300.0
130.97963800904978,96.79108266195783,71.12622778942722,56333.33333333334
131.06720324196544,96.53650025327856,70.8145719592503,56366.66666666666
131.18813905930472,96.9452615065692,70.95915623161609,56400.0
131.1276857999272,96.95226489620977,70.90013166372525,56433.33333333332
130.85294117647058,96.9080575696451,71.50629667993239,56466.66666666668
130.78152428719403,97.23799269476092,71.52853949735594,56500.0
131.2627272727273,97.18157024793388,71.79038567493113,56533.33333333332
131.75101701951016,97.94191227341913,72.28216410682164,56566.66666666668
131.30870086681568,97.6371640407785,72.12598811535736,56600.0
131.12818842939325,97.53793552588732,72.12257136654728,56633.33333333334
130.36638722554892,97.30089155023286,71.65705921490354,56666.66666666666
125.38473954512106,94.40696991929569,69.8128882367327,56700.0
123.89090909090908,93.59266098484848,68.99554924242425,56733.33333333334
122.25448045315257,92.06353886154704,67.76056272634413,56766.66666666666
121.24399277326107,91.56472448057815,67.22669376693767,56800.0
120.94671614934772,91.40973909131806,67.0918578497526,56833.33333333334
125.2806054239878,93.92460847975552,69.25453590527121,56866.66666666666
124.74270607119252,93.78104050609006,68.97726843546407,56900.0
120.56347127640998,90.95381526104416,66.79583551597695,56933.33333333332
121.71905937683715,90.52517342739564,65.74974720752499,56966.66666666668
120.06986359761295,90.32851662404093,66.57691815856778,57000.0
120.27169051404344,90.6378590355061,66.85914149443562,57033.33333333332
119.47283609576428,89.5212882574761,65.3039550995352,57066.66666666668
120.2774878256502,90.06422378966221,65.74496102024327,57100.0
122.81323002466377,91.50967937084093,66.43659546744847,57133.33333333334
120.64590927719419,90.7199370160264,66.06412717585903,57166.66666666666
120.56625483969201,91.01790142254318,66.05081132814199,57200.0
120.55868534389002,91.01750989689823,66.03884804454691,57233.33333333334
122.83555399719496,92.68557152875178,67.84942584151473,57266.66666666666
123.22742542327332,93.35053301083937,67.9879512675804,57300.0
123.06650926585888,93.26634889522451,68.39391037063436,57333.33333333334
123.8460029966508,95.21247576238319,70.23285739467654,57366.66666666666
124.65787681437023,96.73379304473671,72.29866343166049,57400.0
124.69056740305622,96.73249478568084,72.3329715234325,57433.33333333332
121.89116386640363,93.25113937827358,68.10588848831145,57466.66666666668
