B,G,R,Time[ms]
64.1596757852077,57.994181502388194,39.64362425821393,0.0
64.63057765479073,58.40894154271879,40.30661247549868,33.333333333333336
63.89916138869341,57.694639924935494,39.45241027445461,66.66666666666667
63.871833216045026,57.68458245367112,39.43361482524043,100.0
64.0120872383288,57.512773349683215,39.62377740795889,133.33333333333334
64.07155995445389,57.81051648127064,39.61644915476922,166.66666666666666
64.17742310599454,57.52959474388047,39.832780975638116,200.0
63.51617087512972,57.00651447019485,38.88034705407586,233.33333333333331
65.73509672325306,59.27333483729062,41.70007331791777,266.6666666666667
65.73554791043935,59.25652811460154,41.649286560261686,300.0
65.64004198083244,59.70304084845473,41.495125252023094,333.3333333333333
65.70904237570905,59.3477366255144,41.46963630296964,366.6666666666666
65.46314752252252,59.212134009009006,41.05760135135135,400.0
65.810671782894,59.382493604715826,41.585196307418535,433.33333333333337
65.87678185146153,59.70375506129014,41.64726274335792,466.66666666666674
65.86310943479948,59.71398857396417,41.63608630539686,500.0
66.10072660713296,59.6165067391425,41.95889955072384,533.3333333333334
65.20420241837283,59.156203098009215,41.123070823775954,566.6666666666666
64.42737205290396,57.89206440483037,40.21184588844164,600.0
64.42878766243038,58.21179494502356,40.21505069256033,633.3333333333333
64.65277738112238,58.218506354419524,40.5596458660574,666.6666666666666
64.69385647909138,58.29039752194114,40.613950553547866,700.0
64.03955457603526,57.72132003247883,39.656855353207284,733.3333333333333
64.23448555851989,57.68562231759657,39.88748405057418,766.6666666666667
64.11541329662134,57.84483450926404,39.73340790454885,800.0
64.24907203340679,57.688580211112395,39.83247303097088,833.3333333333335
63.93413330997634,57.57452337158039,39.49668622813933,866.6666666666667
63.912586493824996,57.58345741730168,39.516627251759076,900.0
64.08887331756739,57.51694841026538,39.707687366792214,933.3333333333336
63.971904596904594,57.63909101409102,39.67027604527605,966.6666666666664
64.2108259612858,57.4594318414061,39.87337595982599,1000.0
63.923307923307924,57.69958419958419,39.55697043197043,1033.3333333333335
64.03228867165038,57.523519263944785,39.7480161012076,1066.6666666666667
64.42281264315163,57.92301305542832,40.20905863490609,1100.0
63.9507392007392,57.62344074844075,39.559309309309306,1133.3333333333333
63.97866155009011,57.3865922437351,39.5467759753474,1166.6666666666667
63.897869022869024,57.61610649110649,39.56257218757219,1200.0
64.12474012474013,57.505515130515136,39.78696003696003,1233.3333333333335
64.29048303622771,58.01288096607245,39.982029902242665,1266.6666666666665
64.41053834071114,58.22650292731686,40.16912751677853,1300.0
63.94055648010278,57.48781057487373,39.47394236664623,1333.3333333333333
64.3460609545716,58.07653824036802,39.973346751006325,1366.6666666666667
65.1538810069946,59.02602441027385,41.01704754622944,1400.0
65.29115263582946,59.25948926452978,41.04216213205603,1433.333333333333
65.0959516001357,58.60205812507068,40.85655320592559,1466.6666666666665
65.07913851351351,58.53721846846847,40.8,1500.0
64.73549700327943,58.65020355083117,40.5029401786724,1533.3333333333335
64.87192159725927,58.85470781500097,40.784617112689894,1566.666666666667
64.54547264247526,58.56944602434308,40.49220793993858,1600.0
64.30032122985143,58.23332186083864,40.187460563299496,1633.333333333333
63.92300602010542,57.79016044013019,39.76703056139643,1666.666666666667
63.92896851686493,57.772733819166405,39.7762767520235,1700.0
64.0925066697599,57.60839809766848,39.929967521169246,1733.3333333333335
63.950139701011025,57.83253161275457,39.82426476942132,1766.6666666666665
63.953337953337964,57.49399399399399,39.78794178794179,1800.0
64.50212923007041,58.42059391324096,40.322365432659545,1833.333333333333
64.62031018360132,58.25111187136503,40.47727791082222,1866.666666666667
64.63778652069792,58.24270156232181,40.506671228190214,1900.0
64.17945487860743,57.901454420522214,39.88041113147045,1933.333333333333
64.40383073751718,57.87623110398535,40.242012139257895,1966.6666666666665
64.42336640437907,58.334872847531074,40.37795073554568,2000.0
64.57007640551944,58.257469494811275,40.569078572243136,2033.333333333333
64.19223691776884,58.031224841863136,40.06236342725705,2066.666666666667
64.27662430386977,58.19417392546051,40.23938312151935,2100.0
63.51338457460906,57.13355125600025,39.180787466501755,2133.333333333333
63.43376143560872,57.11948745015248,39.08658808350926,2166.6666666666665
63.75214433599528,57.18633540372671,39.42871931381247,2200.0
63.59313249109167,57.23500309214594,39.193745030479725,2233.333333333333
63.64237123420797,57.27160821038372,39.23350119268486,2266.6666666666665
63.62387725653032,57.29843625761993,39.23606325647143,2300.0
63.22732919254658,56.918396923986975,38.74525288376221,2333.333333333333
63.758828748890856,57.37385388938185,39.26178645371192,2366.6666666666665
63.308974244719714,56.9890681163295,38.79223479784928,2400.0
65.52351837106131,59.209020589238996,41.53853372767603,2433.333333333333
65.47541489989048,59.531212265872895,41.50798910449019,2466.666666666667
65.45365196147257,59.540675633933326,41.506725450001404,2500.0
64.98892800363389,58.93759936406996,40.75397456279809,2533.333333333333
64.78082661636083,58.717572743383066,40.49005316412279,2566.666666666667
64.91456582633053,58.58914994569256,40.634539530097754,2600.0
65.25381657808435,59.21304986995364,41.07641637453353,2633.333333333333
65.19929593459004,59.205342947990005,41.18524301612537,2666.6666666666665
65.19938110379287,59.20894844424257,41.19986372927549,2700.0
64.62497161026572,58.6251135589371,40.58122302975246,2733.333333333333
64.90079521741583,58.72418363318482,41.090857819637925,2766.666666666666
64.36578597117209,58.370685016849315,40.4048650638575,2800.0
64.20065144701947,58.050847457627114,40.080710250201776,2833.333333333333
63.74812563323202,57.649037487335356,39.510840932117524,2866.666666666666
64.12530266343825,58.052663438256644,39.948979591836725,2900.0
64.40983512048888,57.929839732503176,40.418626772743,2933.333333333333
63.702069764075844,57.542625560862646,39.59264727167464,2966.666666666667
63.37648535809175,57.16186388718578,39.26244489211994,3000.0
63.31318793611866,57.16224343814779,39.136142010452254,3033.333333333333
63.7413518598929,57.44556375741786,39.746649298017076,3066.666666666667
63.393424036281175,57.01453572882144,39.37914995057852,3100.0
63.58998407873788,57.52922275293096,39.51506730351715,3133.333333333333
64.08316227620026,57.96042878321361,40.19623104116775,3166.666666666666
65.18499540505165,59.40975799938734,41.37851235066418,3200.0
64.69690315315316,58.79304617117117,40.69329954954953,3233.333333333333
64.67193130630629,58.744819819819824,40.66016328828829,3266.666666666666
64.66773648648649,58.74546734234235,40.65250563063063,3300.0
64.30835123826756,58.30747483885559,40.234337894379735,3333.333333333333
64.64529842342343,58.71114864864865,40.5982545045045,3366.666666666666
65.30830518018018,59.11753941441442,41.500478603603604,3400.0
64.80966555277864,58.90696694841481,41.047373002723866,3433.333333333333
64.56236491866682,58.65259924923217,40.80053463769765,3466.666666666667
64.56122739165055,58.64224775338414,40.77798316460016,3500.0
63.43641043641042,57.330408330408325,39.371065871065866,3533.333333333333
63.2299657736339,56.98908296943232,39.0394783429718,3566.666666666667
62.8293918918919,56.60970839260313,38.6260075865339,3600.0
62.87339971550498,56.62215504978664,38.65436818397345,3633.333333333334
63.276463963963955,57.109323138928396,39.08783783783785,3666.666666666666
63.283339260312935,57.109678757705076,39.11412399241347,3700.0
64.5084388185654,58.48337894856882,40.50433344737142,3733.333333333334
64.86172811771644,58.97045856617336,41.00789082025217,3766.666666666666
64.48252366290339,58.436623332192966,40.47710685368913,3800.0
64.49235944805565,58.440643174820394,40.422568137758006,3833.333333333334
64.71229843288667,58.28253463547582,40.699040426981604,3866.666666666666
65.07460703381207,58.70465339816804,41.12213049869953,3900.0
64.87119148577686,58.9019684928814,40.97104827160147,3933.333333333333
64.45452731212225,58.40081537233436,40.50068422853233,3966.666666666667
64.09904134904134,58.05364980364982,40.07464194964195,4000.0
64.13796944166785,58.12831643581322,40.199314579465934,4033.333333333333
64.04466657146935,58.1230329858632,40.097815222047686,4066.666666666666
64.08710552620305,58.116692845923176,40.078280736827075,4100.0
63.88989622533926,57.80653438248375,39.898221005815934,4133.333333333334
63.75838810100311,57.72532572350974,39.723913294131215,4166.666666666667
63.957197663765456,57.944371278057716,39.97065391662849,4200.0
63.444695324938486,57.36459690259082,39.34248082211608,4233.333333333333
63.76833564333564,57.64550127050127,39.753955878955885,4266.666666666667
63.86889806688464,57.811363505994386,39.93440601158722,4300.0
63.36758151536476,57.17842481820315,39.08163265306122,4333.333333333333
63.77257799671592,57.16704785362421,39.65933614825239,4366.666666666666
63.55744194229416,57.262051372273035,39.31667839549613,4400.0
63.61854914379546,57.32371569317382,39.38819493314567,4433.333333333334
63.63397255453906,57.400744780670884,39.32365704902651,4466.666666666667
63.62828407224959,57.40722495894909,39.29228243021346,4500.0
63.4154960685573,57.06649586241423,39.04900315104397,4533.333333333333
63.48606921029282,57.15418515232179,39.078527062999115,4566.666666666666
63.77009760425909,57.15039929015085,39.4843537414966,4600.0
63.597461495420674,57.26333303884324,39.238183585122364,4633.333333333334
63.71614100185528,57.30753600141354,39.39308537267721,4666.666666666667
63.71166475248108,57.32473422269341,39.397119886915796,4700.0
63.65653620755661,57.365226610124566,39.29696380716789,4733.333333333333
64.91995399654974,58.82527314548591,40.767855089131686,4766.666666666667
65.16840790370202,59.13141607994549,40.967749261866906,4800.0
65.52701080432173,58.87452123706626,41.22637626479163,4833.333333333333
65.32164294289143,58.964500085748575,40.851855027725385,4866.666666666666
64.9335801831281,58.571830419931686,40.41200952955022,4900.0
65.33464814497228,59.031841307951744,40.846281369690736,4933.333333333334
65.31521179900531,59.02172297490424,40.81249642714229,4966.666666666667
65.73198198198199,59.540934684684686,41.46632882882883,5000.0
65.53694118985328,59.530371971334326,41.382237515640995,5033.333333333333
65.3021847779523,59.05666143081536,41.07813794088248,5066.666666666666
65.21104082806211,58.91664749856239,40.91955146635998,5100.0
65.26082716686743,59.17332071358917,41.06378707049848,5133.333333333334
64.90939597315436,58.724000458899795,40.650318361727756,5166.666666666667
64.91998156522739,58.81265662355617,40.688884408214996,5200.0
64.99005335807911,58.56020183273402,40.7156652360515,5233.333333333333
64.88867300777171,58.62341955689595,40.55886788075629,5266.666666666667
64.89212388354021,58.61312492750261,40.5841839693771,5300.0
64.47457479030754,58.23660298229265,40.11093313140727,5333.333333333333
64.43165024630541,58.10039878020174,39.92766244428806,5366.666666666666
64.66525311423271,58.090408457755395,40.24374944783108,5400.0
65.06872713656135,58.89394244894432,40.84871964743497,5433.333333333334
65.08033528242647,58.904945703833846,40.834115851023995,5466.666666666667
64.96233035610717,58.710329428140575,40.638962997332094,5500.0
64.84499722635836,58.534495343201655,40.40127295553415,5533.333333333332
64.91827975825524,58.54509357391024,40.409973431432654,5566.666666666666
64.84932263503691,58.52052444909586,40.367492296063716,5600.0
64.89481946624804,58.53471132042561,40.30740159311589,5633.333333333334
64.90479110098975,58.58713614201046,40.337304020320566,5666.666666666668
64.83967091109947,58.53020524449096,40.31411709983138,5700.0
65.02354788069073,58.44947380661666,40.50156985871271,5733.333333333332
64.94073165746985,58.59028933461797,40.38176987533211,5766.666666666668
65.5863487076967,59.26568613451378,41.2826788519206,5800.0
65.67869768502679,59.49193180522294,41.361671798380655,5833.333333333332
65.23022598870057,58.84258618701718,40.70108382335985,5866.666666666666
65.24521503516661,58.84281678773204,40.71598639455783,5900.0
65.21517929205582,58.873054306468354,40.624610861293675,5933.333333333334
65.20749734492954,58.79568873963088,40.55693332185196,5966.666666666668
65.51201239989668,59.272453285111524,41.01328970406728,6000.0
65.70010833618429,59.488282586383846,41.29835214961797,6033.333333333332
65.33421506612996,59.14493962047153,40.956009200690055,6066.666666666666
65.2632844709116,59.085661933119574,40.91625629867156,6100.0
65.3789246693502,59.054744105807934,41.25419781483611,6133.333333333334
64.92859205359206,58.6978516978517,40.56938669438669,6166.666666666668
65.28114979386166,59.087494273934965,41.040025194686216,6200.0
65.24447434722859,59.13728240952817,40.924530462666056,6233.333333333332
65.50231905634448,59.05949381584976,41.33654947320201,6266.666666666668
65.51875286303252,59.05525652771416,41.37680371049015,6300.0
64.86566815567429,58.57455256780825,40.54862631747978,6333.333333333332
64.96558096558097,58.675820050820036,40.66874566874567,6366.666666666666
64.94308731808732,58.675127050127045,40.60068722568722,6400.0
65.03890166762507,58.541661874640596,40.83996549741232,6433.333333333334
65.03949406298399,58.814432398325,40.82811334824758,6466.666666666668
65.03344232203293,58.81081856249642,40.85837205300293,6500.0
65.09635870341282,58.67990861059546,41.023104383835495,6533.333333333332
64.87840725340725,58.57975282975283,40.669409794409795,6566.666666666666
65.53022978045729,59.09822545785463,41.538277784097374,6600.0
64.77908599337171,58.436013721728,40.46566660852375,6633.333333333334
64.95590783090783,58.59127396627397,40.56924231924232,6666.666666666668
64.96090321090321,58.59976322476322,40.553245553245546,6700.0
64.78112099540671,58.442118727833005,40.34231641374498,6733.333333333332
65.1003696003696,58.55419842919843,40.922470547470546,6766.666666666668
64.74681031210768,58.51274415345537,40.45616186388719,6800.0
65.06874196772812,58.65003569898614,41.1170355561902,6833.333333333332
64.70425531914894,58.463139735480155,40.51656124209315,6866.666666666666
64.57021276595745,58.32875958894196,40.334867564046895,6900.0
65.41405983392106,58.95927653281765,41.343561597087934,6933.333333333334
65.09465161363896,58.782985517162714,40.768588208461615,6966.666666666668
65.07569103590804,58.47208588076581,40.71873475128447,7000.0
64.59192357794181,58.11266464032421,40.14271240411058,7033.333333333332
65.20752604839404,58.45118975860387,40.80148683946153,7066.666666666666
65.24723279142165,58.523377147469155,40.9110457742419,7100.0
64.80058625493382,58.318899465985616,40.36344903645229,7133.333333333334
65.32949869603014,58.51150391190959,40.94268328020864,7166.666666666668
65.59789648650198,59.3044362927724,41.18882902504729,7200.0
66.0798397481757,59.387036772070395,41.70233223637143,7233.333333333332
65.6589783946201,59.35275432823008,41.28035484332523,7266.666666666668
65.64793246530262,59.350321934468454,41.28026899413364,7300.0
66.26561657442882,59.734014474244354,41.99770114942529,7333.333333333332
66.71559607449537,60.60399241663878,42.60613917698228,7366.666666666666
66.48123514094871,59.98995245103589,42.325682101211356,7400.0
65.73741593933323,59.41771354986408,41.42192016025182,7433.333333333334
66.33352201969886,59.905213404279394,42.203017094984716,7466.666666666668
66.3543246914978,59.90945884750369,42.1700158496547,7500.0
66.17601607607835,60.02250084908865,41.98610324917922,7533.333333333332
66.16540371789415,59.669958847736616,42.01961118206329,7566.666666666666
65.18841954022989,58.89540229885058,40.80198275862069,7600.0
65.82555386436664,59.31475844185129,41.60823608997125,7633.333333333334
65.30500767350651,59.022537372818746,41.06153015403853,7666.666666666668
65.6153628438809,59.467196875353785,41.46725348126345,7700.0
65.93880714809177,59.33744855967078,41.761598737245606,7733.333333333332
65.69126925481726,59.52549309384415,41.606150173364405,7766.666666666668
65.8293071107827,59.48775080998124,41.821860967430226,7800.0
65.1571551724138,58.90221264367816,40.98850574712643,7833.333333333332
65.43650266916751,58.86547395758189,41.35178184966095,7866.666666666666
65.38566091954023,58.8133908045977,41.30850574712643,7900.0
64.77563218390804,58.43295977011493,40.4960632183908,7933.333333333334
65.33595650307626,58.75178137072543,41.180569466304185,7966.666666666668
65.1597891137076,58.751154174978616,40.94434311769735,8000.0
65.50653798256539,58.9150345296049,41.36924034869241,8033.333333333332
65.2231687988226,58.917044039397716,41.03812408015397,8066.666666666666
65.06489028213166,58.742918210316326,40.79974351667143,8100.0
65.13409182094342,58.65441050037256,41.009801111939026,8133.333333333332
64.90064194417378,58.72316157505588,40.77815670315814,8166.666666666666
65.11606735159818,58.56409817351598,41.07237442922374,8200.0
65.16714033990792,58.99266753822543,41.09927243790144,8233.333333333332
65.31407377934406,58.95310634911613,41.30648553401922,8266.666666666668
65.00524445463404,58.57133031466728,40.93239525419843,8300.0
64.70753424657535,58.55185502283105,40.60990296803653,8333.333333333334
64.82268835616438,58.50082762557077,40.80416666666667,8366.666666666668
64.7417808219178,58.570490867579906,40.66384132420091,8400.0
64.88168589780027,58.46950491672825,40.799522537372816,8433.333333333334
64.72985159817351,58.584931506849315,40.63704337899543,8466.666666666666
64.73504566210046,58.566438356164376,40.66586757990868,8500.0
64.9617294520548,58.51969178082192,40.938955479452055,8533.333333333334
64.40408093081905,58.13406316272138,40.25394050553104,8566.666666666666
64.582249097266,58.04115320685505,40.522783286524906,8600.0
64.51759614833496,58.12939187252823,40.335071932137325,8633.333333333332
65.22639995414684,58.56442368315471,41.19957585831375,8666.666666666666
65.24545767180605,58.57433942798189,41.243136355820496,8700.0
64.88281653006247,58.66151773943945,40.744368659368384,8733.333333333332
64.78087971793538,58.232298711057155,40.610571643257614,8766.666666666668
64.90576484018264,58.63995433789954,40.696318493150685,8800.0
65.96072974644403,59.62691853600946,41.95952099848204,8833.333333333334
66.01555131372109,59.87269818100157,41.87772288344936,8866.666666666668
66.00522119919155,59.88044576689872,41.87923871547272,8900.0
65.81526661383448,59.472234801313256,41.66681761575909,8933.333333333334
65.68074266953471,59.49252801992528,41.48567870485679,8966.666666666666
65.86488169364883,59.45675308502208,41.80009623004642,9000.0
65.78436498566369,59.76063979310733,41.82332602462473,9033.333333333334
65.47692263968624,59.08631273802081,41.43835616438356,9066.666666666666
65.49312226453704,59.08841584721196,41.48382879554369,9100.0
65.31180014778606,59.149121809810715,41.18575569828909,9133.333333333332
65.64659239470244,59.038935940430854,41.504433581538116,9166.666666666666
65.06436636671062,58.683785177967565,40.809594772740304,9200.0
65.49133177968511,59.061245950093785,41.42687432501563,9233.333333333332
65.04419097839171,58.740614432280616,40.826703731300505,9266.666666666668
65.03656789132802,58.74838081045452,40.83300854015017,9300.0
65.23700349630309,58.68389981085574,41.079239983951396,9333.333333333334
65.09669284117614,58.771536653865994,40.82988479394738,9366.666666666668
65.14429414799106,58.861236888863424,40.91219120765748,9400.0
65.18787931333449,58.98127275880007,40.95352869776313,9433.333333333334
65.34479682283873,58.87757568780937,41.165131806147116,9466.666666666666
65.36839530332679,58.855991711753205,41.23972602739725,9500.0
65.25562106236633,58.99026067857349,40.97676434888157,9533.333333333334
65.2772094098607,59.01618403560489,41.0126582278481,9566.666666666666
65.25747066643547,59.036125079475184,40.962776718108785,9600.0
65.49858389688457,58.888676955089295,41.395266169585575,9633.333333333332
65.21782583284629,58.79725306838108,40.89281122150789,9666.666666666666
64.815407190022,58.384974321349965,40.42415260454879,9700.0
64.9100515162159,58.65159231940054,40.69971314834329,9733.333333333332
64.77096964338344,58.44860005894488,40.428882994400226,9766.666666666668
64.99621101719616,58.48819586126493,40.78120081608861,9800.0
64.85809018567639,58.42399056881816,40.52811671087533,9833.333333333334
64.86286472148541,58.42107279693487,40.50162098437961,9866.666666666668
64.88909519599174,58.41261420571765,40.507309165929854,9900.0
64.46840313748706,58.00624537516649,40.054994820186465,9933.333333333334
64.92161408657373,58.28507703595011,40.61303008070433,9966.666666666666
66.04089528285665,59.77133604631168,41.81612884736632,10000.0
65.9802511415525,59.76546803652968,41.71341324200913,10033.333333333334
66.02822834871324,59.83736458990086,41.72576947326188,10066.666666666666
65.94212328767124,59.81386986301371,41.65485159817352,10100.0
66.31880707762556,59.73330479452055,42.07140410958904,10133.333333333332
65.7092653603838,59.46552222414889,41.46664932662852,10166.666666666666
65.2796029719062,59.043069421871365,41.04692941722777,10200.0
65.540980775872,59.41665707378842,41.44298952457696,10233.333333333332
65.11232358504293,58.77768077986322,40.858053251855075,10266.666666666668
65.09564964353267,58.77672050050924,40.8482467626946,10300.0
65.0223774188855,58.82496726320384,40.76644842135894,10333.333333333334
64.78036683785767,58.433250183418934,40.46353631694791,10366.666666666668
65.26871952635246,59.08451358254006,41.03244717901092,10400.0
65.41560250754586,58.98548873926168,41.23789760854422,10433.333333333334
65.26976433712561,59.03909333642907,41.04385302995125,10466.666666666666
65.24648827490132,59.05122475040632,40.96482470397028,10500.0
64.97149045779183,58.6683936307224,40.66959372438824,10533.333333333334
64.80271146478043,58.52496315944593,40.45496610669024,10566.666666666666
65.10533451223107,58.424432655467136,40.88278809313292,10600.0
65.19368822611409,58.950407490896474,41.066210045662096,10633.333333333332
65.21608577538869,58.98156175943586,41.06360903993989,10666.666666666666
65.09326349483486,58.80279353993889,40.840069838498465,10700.0
64.71116654438738,58.420689655172396,40.36595744680851,10733.333333333332
64.98366701791359,58.66107598641846,40.69277602154315,10766.666666666668
64.85753424657534,58.638822500728644,40.56362576508307,10800.0
64.92483241037597,58.62124744972312,40.60276887204896,10833.333333333334
64.86778480271632,58.696932443507784,40.58693361433088,10866.666666666668
64.74762746831712,58.53177129384026,40.392396109637495,10900.0
64.84919848440688,58.647274846983386,40.59329641503936,10933.333333333334
65.23038077548178,59.1006210819596,40.99219294172278,10966.666666666666
65.66282295821051,59.48277556210625,41.52401595283509,11000.0
65.93772819472615,59.727528252680386,41.66650246305419,11033.333333333336
65.8693132425384,59.106519849319035,41.503535207186324,11066.666666666664
65.87319617502172,59.10683859750797,41.52541292379021,11100.0
65.76632961413296,59.38601231985122,41.36724198047421,11133.333333333332
65.53297594900029,59.164039408867,41.19179947841206,11166.666666666664
65.11019871420223,58.802893045002925,40.74599649327879,11200.0
65.22596959713312,58.96242991734582,40.96292121842668,11233.333333333332
65.06390222610214,58.75006547359232,40.71750327367962,11266.666666666668
65.04417285028372,58.77023134002618,40.726960570347735,11300.0
64.70505552308592,58.367153711279954,40.2573056691993,11333.333333333336
64.68635300993571,58.37650496785506,40.22448860315605,11366.666666666668
64.42844090775125,57.998526377836725,39.912908930150316,11400.0
64.34827586206896,58.030739758325964,39.89805481874447,11433.333333333336
64.9167252078211,58.67307692307693,40.700825430277476,11466.666666666664
64.41778895959746,58.092940654136456,40.02113363918899,11500.0
64.40106556163978,58.100636377090424,39.87432292437472,11533.333333333336
64.64697907456528,57.95390509873268,40.16445623342175,11566.666666666664
64.46631299734747,57.97978190391984,39.91075744179192,11600.0
64.46381530264911,58.05801391149919,40.031374870504656,11633.333333333332
64.41885452123724,58.0517685363327,40.04300725173894,11666.666666666664
64.39671451827735,58.05978984756549,40.0239159390262,11700.0
64.95797143689886,58.625007286505394,40.540396385893324,11733.333333333332
65.183920004624,59.04944800878562,40.84015374833825,11766.666666666668
65.05018944914019,58.57105800058292,40.74173710288546,11800.0
65.23068030749667,59.03184787006532,40.922807930177456,11833.333333333336
64.97869425823374,58.657301078402796,40.518740891868255,11866.666666666668
64.97187408918683,58.663480034975215,40.51346546196446,11900.0
64.90821917808219,58.656601573885155,40.48974060040805,11933.333333333336
64.94284465170503,58.66840571262023,40.57508015155931,11966.666666666664
64.9775494672755,58.73223275963002,40.62633181126332,12000.0
65.24301952783445,58.57446808510638,40.96986301369864,12033.333333333336
64.93497522588167,58.63998834159138,40.60711162926261,12066.666666666664
64.89227630428447,58.66960069950453,40.56957155348295,12100.0
64.93928883707375,58.67368114252404,40.67234042553192,12133.333333333332
64.93762439995318,58.76583538227374,40.66008078679312,12166.666666666664
64.98688678140732,58.79209109003629,40.704454981852244,12200.0
64.98738438122,58.77432384966632,40.69678609062171,12233.333333333332
65.32334596327601,59.19562809676479,41.11503934712912,12266.666666666668
65.44381990084169,59.31508705176986,41.325521734117366,12300.0
65.63330263612295,59.525469091746295,41.30473696327847,12333.333333333336
65.66101646137908,59.53657764475653,41.31996086105675,12366.666666666668
65.9640339313349,60.001748151544675,41.68026021665616,12400.0
65.7779426742325,59.338600320093114,41.40561617925214,12433.333333333336
65.3282447179011,59.16394822382168,40.92979452054794,12466.666666666664
65.66533726374197,59.61898156175943,41.3574070862956,12500.0
65.45028442071047,59.11353610401672,41.214273276062215,12533.333333333336
65.14880187025132,58.936060783167754,40.82597895967271,12566.666666666664
65.31059902484328,59.14563501276991,41.06112143022986,12600.0
65.11811805961426,58.94097019286967,40.80382817066044,12633.333333333332
64.8428466617755,58.52604548789435,40.407366104181946,12666.666666666664
64.84082171680117,58.52625091709464,40.39122523844461,12700.0
64.7536799620133,58.41102801519468,40.236793684710356,12733.333333333332
64.94908290535582,58.503125458547316,40.61382245047689,12766.666666666668
64.99476056667838,58.74622409553916,40.65741716426648,12800.0
64.95164500643952,58.754097880810214,40.655660929633534,12833.333333333336
64.9601387500735,58.76688811805515,40.66053265918043,12866.666666666668
64.97783526368393,58.76835792815569,40.62616849902993,12900.0
65.44424366074031,59.10148644709997,41.292159720198185,12933.333333333336
64.95635756937126,58.71941224680951,40.6544901065449,12966.666666666664
65.44714998839099,59.07310773159972,41.308364290689575,13000.0
65.28775867094141,59.18484406878461,41.13573302244244,13033.333333333336
64.95515747570542,58.722485657417145,40.73577449947313,13066.666666666664
64.92075196735645,58.67312736811425,40.68568930341009,13100.0
64.71879677182685,58.49719735876742,40.39577402787968,13133.333333333332
64.77951577402786,58.511782831988256,40.358503301540715,13166.666666666664
64.74127659574468,58.54955245781365,40.35791636096845,13200.0
64.92208363903154,58.44443140132061,40.70215700660308,13233.333333333332
64.43856741157319,58.14251886932071,40.08018351339352,13266.666666666668
64.39114991860293,58.15930146514726,40.063874500517976,13300.0
64.49494649227111,58.19013079667064,40.17690249702735,13333.333333333336
64.49577883472057,58.18379904875149,40.05115933412604,13366.666666666668
64.55210892407874,58.07973952937694,40.254580435104344,13400.0
64.61301369863014,58.37151629664621,40.372372461029755,13433.333333333336
64.76362513963196,58.28531953671586,40.478217414310066,13466.666666666664
65.0132625994695,58.53194812849985,40.68685529030356,13500.0
64.62658004585808,58.30748427303193,40.23590452113587,13533.333333333336
64.65647598330295,58.28858251513905,40.30075254277148,13566.666666666664
64.56709274673008,58.18932818073722,40.08739595719382,13600.0
64.69098370335381,58.39717170524328,40.350732168162494,13633.333333333332
64.66273027869627,58.39212328767124,40.26794992914502,13666.666666666664
64.60935387147981,58.35131401022989,40.17808219178081,13700.0
65.48857475954532,59.17677062081026,41.31728359078985,13733.333333333332
65.51654592871631,59.35004346566214,41.195334685598375,13766.666666666668
65.25789012273525,59.03088836937464,40.82416715371128,13800.0
65.34981055085981,59.255406587000884,41.024336928009326,13833.333333333336
64.92997347480106,58.6352490421456,40.5307987032125,13866.666666666668
65.06556609296335,58.79943800491746,40.70009366584709,13900.0
65.3458904109589,59.19918156489436,41.00963547713025,13933.333333333336
65.17329420396185,58.45429200293472,40.759354365370505,13966.666666666664
64.87303271441202,58.583377541998225,40.4561155319776,14000.0
64.85699192956713,58.55371973587674,40.48014673514306,14033.333333333336
64.49569335503922,58.1701346751517,40.079917122983574,14066.666666666664
64.49874204528638,58.15983424596715,40.121059641852895,14100.0
64.89690539345712,58.5615089890952,40.51335101679929,14133.333333333332
64.84827586206896,58.58644267609785,40.45688181550251,14166.666666666664
64.52058605890188,58.14533076809236,40.035725913867104,14200.0
64.50057717922155,58.14331804055054,40.08121947609886,14233.333333333332
64.4486014503478,58.14216368210744,40.12733461595383,14266.666666666668
64.83430592396111,58.54933687002652,40.581019746536995,14300.0
64.79478337754199,58.569437076333635,40.578426171529614,14333.333333333336
64.5275564803805,58.2064209274673,40.15627229488704,14366.666666666668
64.42450909961686,58.04567768199234,39.96354166666666,14400.0
65.17415266725611,58.479634541703504,40.95865016209844,14433.333333333336
64.9623501553944,58.606274974100934,40.66035222731982,14466.666666666664
64.51800745550746,58.08210076960077,40.058471620971616,14500.0
64.60921521997622,58.18882282996433,40.3161414982164,14533.333333333336
64.6337065233617,58.278578892371996,40.22349604418571,14566.666666666664
64.64705179877593,58.24493207941485,40.28437080161217,14600.0
64.55372443648307,58.27281683833407,40.22504851470369,14633.333333333332
64.36145158861615,57.86381569040807,39.81478692967927,14666.666666666664
64.3735883150128,57.85920795060984,39.81915374190634,14700.0
64.53966263621436,58.269891028511715,40.08449022242126,14733.333333333332
64.60868786386028,58.23600537393642,40.10974772354083,14766.666666666668
64.56581579340201,58.251440513509465,40.088490819525305,14800.0
65.12910368445914,58.876151393481344,40.810935285781774,14833.333333333336
64.60089565606808,58.26944320047769,40.10097029407375,14866.666666666668
64.58178832661592,58.261830123899095,40.111628601283776,14900.0
64.99656051710846,58.303682618751104,40.81942714819427,14933.333333333336
64.95586798875239,58.52034926742638,40.70161314192689,14966.666666666664
64.62955665024631,58.15235109717869,40.31607702642186,15000.0
64.56787580235857,58.16480071652486,40.210867293625924,15033.333333333336
64.59304373787133,58.17172712345126,40.2375578444544,15066.666666666664
64.59050604567847,58.18492312285416,40.22806389013286,15100.0
64.55679952231677,58.15847141364383,40.16489028213167,15133.333333333332
64.22179910044977,57.7528335832084,39.71631184407797,15166.666666666664
64.17346326836582,57.7592203898051,39.72053973013493,15200.0
64.62821046373364,58.04988109393579,40.37592152199762,15233.333333333332
65.21719735876742,58.9729420396185,40.985531914893606,15266.666666666668
65.18699926632428,58.9841819515774,40.93435069699193,15300.0
65.63727408771729,59.450241740531816,41.411793484517105,15333.333333333336
65.59450903649132,59.4448889144699,41.34105560032232,15366.666666666668
65.86171319576903,59.449309288480435,41.83610773943703,15400.0
64.88515613437916,58.51679739529377,40.57167381974249,15433.333333333336
64.82956086059534,58.44759799587386,40.570792808723844,15466.666666666664
64.80778072502211,58.466902446212785,40.54562334217506,15500.0
64.75207780725022,58.44456233421751,40.573445328617744,15533.333333333336
64.91982788900597,58.6650567849198,40.711801896733405,15566.666666666664
65.1074688187821,58.91198826118856,40.91415994130594,15600.0
65.30431361119207,59.08600990964733,41.18606820169047,15633.333333333332
65.07222303741746,58.92137931034482,40.927688921496696,15666.666666666664
65.20740308947829,59.1216263480035,41.11439813465461,15700.0
64.94060999882917,58.65314365999297,40.76255707762557,15733.333333333332
64.86529680365297,58.66657885493503,40.74909261210632,15766.666666666668
64.78750924966701,58.55785111735978,40.638804203048686,15800.0
64.78007991712299,58.5491490306349,40.53994376202457,15833.333333333336
64.87774201239866,58.3099964234621,40.7684787792084,15866.666666666668
64.65291319857313,58.0308561236623,40.58543400713437,15900.0
64.39093341260404,58.11691438763377,40.105677764566,15933.333333333336
64.4281807372176,58.119827586206895,40.09536266349585,15966.666666666664
64.40775862068965,58.135225921522,40.02809155766944,16000.0
64.52939244663385,58.184415584415596,40.242603373637856,16033.333333333336
64.39004161712248,58.125594530321045,40.11206896551725,16066.666666666664
64.39872175980975,58.11126634958383,40.163852556480386,16100.000000000002
64.94926215532954,58.69013463460521,40.80689634899171,16133.333333333332
64.89996472455759,58.705156093832684,40.7140337468399,16166.666666666668
64.98003746633883,58.61099402880225,40.95108886547243,16200.0
64.55559163911195,58.28858644307984,40.350820736891826,16233.333333333336
64.51233650416171,58.099970273483954,40.194292508917954,16266.666666666664
64.49247919143876,58.111979785969076,40.2025564803805,16300.0
64.41275267538644,58.0981272294887,40.167895362663494,16333.333333333332
65.14017679428639,58.55245287437068,41.16733988994263,16366.666666666668
65.20682016904692,59.03990090352667,41.17152433692801,16400.0
65.61562572556304,59.47266078476897,41.56083120501509,16433.333333333332
65.54211167866265,59.468887856977005,41.49213489667982,16466.666666666664
65.44769140853303,59.30642898889538,41.301987142022206,16500.0
65.54517079937575,59.41176810588986,41.46835443037975,16533.333333333336
64.8565759303898,58.65738726556529,40.671350461520376,16566.666666666668
65.41031495141085,59.00924950240019,41.437565858798735,16600.0
64.88218002234112,58.70265741666178,40.70101122934917,16633.333333333332
64.91379815009952,58.67817000351247,40.739257698161815,16666.666666666668
64.53580457404904,58.25530601446293,40.296519489681934,16700.0
64.5519136927509,58.23511082368157,40.30395672879065,16733.333333333336
64.45283409797247,58.09883084208968,40.132721622021606,16766.666666666664
64.49563020214029,58.14182520808561,40.11304994054697,16800.0
64.72672413793103,58.02196789536266,40.51293103448275,16833.333333333332
64.5117878770063,58.18028690693163,40.387971074137226,16866.666666666668
64.38878200384787,58.026017463371325,40.22240639336985,16900.0
64.47464328180736,58.05133769322236,40.23516646848989,16933.333333333332
64.42824019024971,58.07330558858502,40.15600475624258,16966.666666666664
64.48287752675387,58.02080856123662,40.193638525564786,17000.0
64.41346611177171,57.99209274673008,40.111979785969076,17033.333333333336
64.76878868258179,58.36625405246096,40.524904214559385,17066.666666666668
64.80038314176245,58.36189213085765,40.54503389330976,17100.0
64.79686251294953,58.4,40.54630753292881,17133.333333333332
64.78803418803419,58.38564692012968,40.5384910109048,17166.666666666668
64.72631889183613,58.377836722664306,40.544297082228105,17200.0
64.46212841854934,58.01902497027349,40.11902497027349,17233.333333333336
64.78087908835282,58.47710522421193,40.55199052834098,17266.666666666664
64.87562466929273,58.64151331647951,40.755482391675,17300.0
64.48350178359097,57.89797859690845,40.3949464922711,17333.333333333332
64.48884908195254,58.0320644872369,40.14339453649799,17366.666666666668
64.5953923900119,57.94366825208086,40.37636741973841,17400.0
64.08481862964622,57.59370055232125,39.77966860725482,17433.333333333332
64.17145427286357,57.67907046476762,39.82014992503749,17466.666666666664
64.17550224887556,57.67724137931034,39.82137931034483,17500.0
64.08650674662668,57.70521739130435,39.687016491754115,17533.333333333336
64.02155545603821,57.635647111509186,39.744439468577404,17566.666666666668
63.97990744887296,57.64320047768324,39.684340946409904,17600.0
64.54140903686088,57.95529131985731,40.450564803804994,17633.333333333332
64.3455112960761,58.045362663495844,40.17232461355529,17666.666666666668
64.34640309155769,58.0351664684899,40.150743162901314,17700.0
64.49607404090163,58.04394685773996,40.21522615315719,17733.333333333336
64.02851574212893,57.6512143928036,39.73136431784108,17766.666666666664
64.49742508658335,57.573377503388045,40.25453997891884,17800.0
64.27435627164583,57.60849269688301,39.88450534558049,17833.333333333332
64.23041710585754,57.6603222406264,39.842192440897456,17866.666666666668
64.15079460269865,57.58662668665667,39.774152923538225,17900.0
64.26505952024885,57.82786983310402,39.95507567147216,17933.333333333332
64.22156301761783,57.690438187020035,39.80915524770366,17966.666666666664
63.7975499092559,57.27528735632184,39.26978221415608,18000.0
63.74737961415768,57.118031292723686,39.156311711985424,18033.333333333336
64.22487577172112,57.689835868092146,39.69908146363499,18066.666666666668
64.21936455353111,57.7023339858455,39.68691462129197,18100.0
64.23662099081463,57.73335341063093,39.81590121969583,18133.33333333333
65.2969207352769,59.06053155368224,41.17155485306171,18166.666666666668
65.65920514319112,59.22855055523085,41.626738749269435,18200.0
65.18359501100514,58.85749082905353,40.93432134996331,18233.333333333336
65.82658117167007,59.464704167881095,41.7153308073448,18266.666666666664
65.78685860227537,59.40071395402833,41.7217610866032,18300.0
65.33113804004215,58.999004800374664,41.208025992272574,18333.33333333333
64.99309163911195,58.62293339631554,40.78471894189892,18366.666666666668
64.83147157387265,58.614792168851785,40.71032982538656,18400.0
64.88561058424072,58.539105491160285,40.7631717597471,18433.33333333333
64.79250087811731,58.55098934550989,40.72992038402997,18466.666666666664
64.81067790656832,58.54094953752488,40.68973188151271,18500.0
64.45291319857313,57.9564209274673,40.23231272294887,18533.333333333336
64.40627229488705,57.966171224732456,40.12030321046373,18566.666666666668
64.57960889685027,58.0213763248246,40.214509628302736,18600.0
64.6340805313408,58.19771096483425,40.36814327225286,18633.33333333333
64.60082073689183,58.17964690599906,40.34308573453,18666.666666666668
64.58555739253661,58.18758856872935,40.33216225791215,18700.0
64.57194733112895,58.18552196504488,40.33921823334908,18733.333333333336
64.87353970230683,58.11967028405385,40.78799739073712,18766.666666666664
64.1520539730135,57.612023988006,39.89064467766117,18800.0
64.16338830584708,57.61805097451275,39.894362818590714,18833.33333333333
64.17868065967015,57.645967016491745,39.797571214392796,18866.666666666668
64.19739130434783,57.627586206896545,39.82395802098951,18900.0
64.47889417360285,58.05080261593341,40.249821640903676,18933.33333333333
64.67253750815395,58.336446658364466,40.424094170669505,18966.666666666664
64.77591673147096,58.276544834599505,40.43318179099121,19000.0
64.60344202898551,58.09885265700483,40.18967391304348,19033.333333333336
64.30168737816764,57.44575414230019,39.802936159844045,19066.666666666668
64.31030701754386,57.458516081871345,39.785026803118896,19100.0
64.21818898592916,57.66308830664726,39.774138767588546,19133.33333333333
64.40728299643281,58.014892984542215,40.16661712247325,19166.666666666668
64.20445716006626,57.69188375244692,39.751513326306274,19200.0
64.58686944737238,57.56867941575064,40.26062340009034,19233.333333333336
64.19773139745918,57.49751966122202,39.79234724742891,19266.666666666664
64.20003024803387,57.49885057471264,39.78197217180883,19300.0
64.06843932748538,57.33028752436646,39.51656920077973,19333.33333333333
64.167574107683,57.536781609195394,39.63723532970357,19366.666666666668
64.04529117933723,57.37469541910332,39.53021442495128,19400.0
64.11529597282872,57.497452692867526,39.55940684133915,19433.33333333333
64.56407004830918,57.91823671497584,40.11416062801932,19466.666666666664
64.54855072463768,57.94118357487922,40.11419082125604,19500.0
64.14119359534206,57.534388646288214,39.63385492479379,19533.333333333336
64.56014492753623,57.97611714975845,40.09293478260869,19566.666666666668
64.12066351285783,57.577237991266365,39.64926006792818,19600.0
64.58351370851369,57.81496512746514,40.27910052910053,19633.33333333333
64.12845705967976,57.55015769044153,39.61211183891315,19666.666666666668
64.13434012615235,57.55877001455604,39.62333212032994,19700.0
64.37336244541486,57.50042455118874,39.753608685104325,19733.333333333336
64.78885941644562,58.340406719717066,40.59675803124079,19766.666666666664
65.21490829053558,58.79815113719736,41.106382978723396,19800.0
65.1832721936904,58.75204695524578,40.95641966250917,19833.33333333333
65.15099357101111,58.67317358270017,40.8687901811806,19866.666666666668
65.15312682641729,58.67644652250146,40.86899473991818,19900.0
65.43093263494835,59.11200349192492,41.26035210242979,19933.33333333333
65.76226807698977,59.219784983526964,41.75822206808854,19966.666666666664
65.24846983386767,58.951384436024476,41.19682308364908,20000.0
64.93949771689498,58.51940639269407,40.78213909378293,20033.333333333336
64.8835323732584,58.53685165671467,40.68010186160871,20066.666666666668
64.88531787846856,58.526694766420796,40.69871794871795,20100.0
64.92298911134527,58.53249034070952,40.79484252429457,20133.33333333333
64.56279522909779,58.16568256967408,40.2984175720359,20166.666666666668
64.65535077288942,57.926545778834715,40.48501783590963,20200.0
64.47571343638526,57.9616527942925,40.16804399524376,20233.333333333336
64.16620689655173,57.62383808095952,39.77739130434783,20266.666666666664
64.23827314238272,57.763594852635954,39.95175828737472,20300.0
64.57244922059519,58.18587623996221,40.393569910250356,20333.33333333333
64.58830619084014,58.15956258451408,40.4236286671762,20366.666666666668
64.1454367550258,57.83526062978118,39.887890648164614,20400.0
64.06072548141513,57.635587401104644,39.6760710553814,20433.33333333333
64.03417874396135,57.47602657004831,39.51105072463768,20466.666666666664
64.02599637681159,57.48429951690821,39.49903381642512,20500.0
64.71336206896552,58.12361242324043,40.607788143599436,20533.333333333336
64.63835023424065,58.25698274328411,40.37822451521082,20566.666666666668
64.68472395184723,58.23003024372887,40.41267864555536,20600.0
64.18558382257011,57.762912886200546,39.82609855897528,20633.33333333333
64.74619154463865,58.15809518186114,40.55621162021729,20666.666666666668
64.74123169579596,58.17025862068966,40.564773264052896,20700.0
64.24353242727706,57.753189079637565,39.965396995708154,20733.333333333336
64.41673602853746,57.98296670630202,40.1935790725327,20766.666666666664
64.41417954815695,58.02996432818074,40.23914982164089,20800.0
64.84777268018351,58.494124611513996,40.670179073553356,20833.33333333333
64.53136288998358,58.102403343782655,40.21035975518735,20866.666666666668
64.53709508881923,58.109628302731764,40.20307508583371,20900.0
64.58578892371996,58.13025824749962,40.21606209882072,20933.33333333333
64.65283358320839,58.21136431784108,40.23898050974513,20966.666666666664
64.80172101449276,57.984450483091784,40.32989130434783,21000.0
64.47812128418549,58.10942330558858,40.10178359096314,21033.333333333336
64.54673476617856,58.26665092111479,40.31158478979688,21066.666666666668
64.58074515824279,58.229097779877186,40.338686820973074,21100.0
64.5603448275862,58.22466934341049,40.35648913556921,21133.33333333333
64.74436112423241,58.21917808219178,40.586177373641945,21166.666666666668
64.21935675997618,57.87912447885646,39.93466349017272,21200.0
63.781659388646275,57.26989911157958,39.37912964914922,21233.333333333336
63.74786929679265,57.26664658936907,39.318446017166096,21266.666666666664
63.84627949183303,57.34449485783424,39.33850574712643,21300.0
63.81767806053305,57.23833759975907,39.35184460171661,21333.33333333333
63.76265622647191,57.28854088239722,39.227646438789336,21366.666666666668
64.00763888888889,57.51434178743961,39.55751811594203,21400.0
63.60677462396895,57.08221130519166,39.04773168364871,21433.33333333333
64.17718140929536,57.69184407796102,39.74278860569715,21466.666666666664
64.19721139430285,57.68338830584708,39.76794602698651,21500.0
63.83614640048397,57.328251663641865,39.3279189352692,21533.333333333336
63.906745311554744,57.327949183303076,39.451542649727756,21566.666666666668
64.12566716641679,57.720179910044976,39.751244377811105,21600.0
64.73960638870611,57.81019321648622,40.38269426332476,21633.33333333333
64.47308129449064,57.82502841418915,40.025363402524384,21666.666666666668
64.46488604414668,57.82996351019922,39.974666507148406,21700.0
64.47640126817012,57.85861697673028,40.056798468624756,21733.333333333336
64.37710115451337,57.915535084046184,40.005383741101866,21766.666666666664
64.43195549440689,57.92310223126161,39.95178560746545,21800.0
64.3098930883903,57.784098780304184,39.76593886462882,21833.33333333333
64.21910044977511,57.70887556221889,39.79955022488755,21866.666666666668
64.2256071964018,57.73412293853074,39.77697151424288,21900.0
64.29655172413793,57.81996687245896,39.79719921698539,21933.33333333333
64.4664960096371,57.71525372684837,40.09603975304924,21966.666666666664
63.95087719298245,57.35493042952208,39.413914095583785,22000.0
63.94915305505143,57.34240774349668,39.436932849364794,22033.333333333336
63.99519346310983,57.4697488584475,39.5700853160298,22066.66666666667
63.887840290381114,57.31197822141561,39.3724742891712,22100.0
64.52620087336244,57.86552611114436,40.24466112340731,22133.33333333333
65.23579131448557,58.97892742640629,41.211745846691926,22166.66666666667
65.60282642621813,59.35203167446969,41.5499104098029,22200.0
65.56852205074851,59.36382290041038,41.49115658054448,22233.333333333336
65.59285590428298,59.39087335992138,41.55519912143807,22266.666666666664
65.60843303855269,59.36622160568754,41.604791630541584,22300.0
64.87492682355696,58.51741599344339,40.73908207469852,22333.33333333333
65.50472731465467,58.99432145739654,41.583592759137545,22366.66666666667
64.99988420900274,58.66521927920104,40.95238095238096,22400.0
64.8976407914764,58.618282402528976,40.81184872965695,22433.33333333333
64.61543457723194,58.24498110533774,40.38595299952764,22466.666666666664
64.62163438828532,58.25212564950402,40.384240670760505,22500.0
64.68251062824753,58.276009683514395,40.47723783656117,22533.333333333336
64.98133341172321,58.715121406314296,40.88147451349286,22566.66666666667
65.03353495819249,58.259443752594436,40.83149498902922,22600.0
64.90016279413942,58.497646884712154,40.70614177889596,22633.33333333333
64.83932277767894,58.2631797426318,40.69015003261578,22666.66666666667
64.84901856134732,58.27038486627528,40.69204767834905,22700.0
65.01281674407667,58.69621964842143,40.83332353459933,22733.333333333336
64.87085457271364,58.163328335832084,40.51703148425786,22766.666666666664
64.93513674197385,58.599256837098686,40.739774078478,22800.0
64.96073127229491,58.61111771700357,40.75,22833.33333333333
64.84940440738535,58.41110780226325,40.55479452054794,22866.66666666667
64.86774865991661,58.41447290053603,40.53314472900536,22900.0
65.04844709494569,58.7353861596599,40.88320736891829,22933.33333333333
64.6185732076143,58.29205953863488,40.38359129455021,22966.666666666664
64.57578743095985,58.14446932377968,40.302970592625776,23000.0
64.74014294222752,58.350148898153655,40.51640857653365,23033.333333333336
64.85977011494253,58.018808777429456,40.635885953127335,23066.66666666667
64.88132557098075,58.03319898492313,40.65245559038664,23100.0
64.28468604125884,57.760909501581075,39.79587411534407,23133.33333333333
64.19469265367316,57.692383808095954,39.774152923538225,23166.66666666667
64.10890554722639,57.748095952024,39.77634182908546,23200.0
64.14869565217391,57.72512743628186,39.88680659670165,23233.333333333336
64.10743628185908,57.7352023988006,39.78821589205398,23266.666666666664
64.12371814092954,57.739610194902546,39.80011994003,23300.0
64.14857571214392,57.753733133433286,39.79031484257871,23333.33333333333
64.12527736131935,57.74791604197901,39.73946026986507,23366.66666666667
64.38186420488385,57.84782608695652,40.16423466349017,23400.0
64.30739346483963,57.81288962505646,39.88230688149375,23433.33333333333
64.37067057486391,57.99099718849075,40.160375665490214,23466.666666666664
64.25419892793329,57.92787373436569,40.09529481834425,23500.0
64.19820089955023,57.73196401799101,39.8328335832084,23533.333333333336
64.53172714952565,57.70323746423731,40.15600060231893,23566.66666666667
64.42851588203625,57.89507686785907,40.015582939522645,23600.0
64.64286136041568,58.210380255077936,40.4918221539915,23633.33333333333
65.2669775575634,59.02669775575634,41.188837073739435,23666.66666666667
65.68004248112747,59.56637676167514,41.75091133499813,23700.0
65.72646273508242,59.45071975853262,41.63469352217321,23733.333333333336
65.66111785445929,59.41653661638056,41.52592335703139,23766.666666666664
65.64357551586613,59.4091960002312,41.551355412981906,23800.0
65.31337802389974,59.03042844651705,41.16764791605946,23833.33333333333
65.32215097639173,59.0557563392597,41.25441562226756,23866.66666666667
65.33101136694842,59.06502477411835,41.25852521130866,23900.0
64.8507200561995,58.645006439526995,40.751287905397504,23933.33333333333
64.88711745846692,58.575196735645584,40.70731565141358,23966.666666666664
64.892430628732,58.62993209226086,40.79378878351481,24000.0
65.22388189318279,58.71084093211753,41.29654074395716,24033.333333333336
64.92983842641378,58.65645123521836,40.81670764547477,24066.66666666667
64.92257932326426,58.66845217187683,40.83230886313078,24100.0
64.98697459313898,58.630107715724144,40.89971900245872,24133.33333333333
65.01119995296608,58.682344641072376,40.86360162267035,24166.66666666667
64.52813216532424,58.27044505849845,40.373655123758006,24200.0
64.53595890410959,58.328737600377906,40.44369981105338,24233.333333333336
64.96901640308073,58.73678640719618,40.89499676641778,24266.666666666664
64.62243150684932,58.289413084553615,40.4537376003779,24300.0
64.91266388382621,58.73284731612676,40.84781586219061,24333.33333333333
64.97219119289788,58.725498265624076,40.883973190663774,24366.66666666667
65.06142886339086,58.89676213833173,41.055589617821376,24400.0
65.0865130225175,58.63642777353167,41.10400376271386,24433.33333333333
64.69892094768942,58.44252873563218,40.66613886934084,24466.666666666664
64.69343771991554,58.45094417077176,40.64872155758855,24500.0
64.9317960950614,58.4156433136025,40.78625909238154,24533.333333333336
64.69546094299788,58.387725779967155,40.62464813511611,24566.66666666667
64.52613322358752,58.133870303956726,40.33020753718621,24600.0
64.55517831837507,58.21616674539443,40.34583136513936,24633.33333333333
64.74674524982407,58.42127023223082,40.589696223316906,24666.66666666667
64.75850340136054,58.42352803190242,40.557529908515136,24700.0
64.74541331684189,58.4865859763819,40.665194216214616,24733.333333333336
64.28790946992257,57.88758189398451,40.03278737343657,24766.666666666664
64.24249553305539,57.90446694460989,39.98308516974389,24800.0
64.37766115163376,57.79710016011386,40.082666192255225,24833.33333333333
64.28918999404408,57.92206670637285,39.99565217391304,24866.66666666667
64.20119940029987,57.7576311844078,39.84266866566717,24900.0
64.26542728635683,57.71550224887557,39.904977511244375,24933.33333333333
64.24378817529502,57.8220660617921,40.00803534365177,24966.666666666664
65.05766303711509,58.63924013581548,41.00251726964056,25000.0
64.99894625922023,58.64284041681302,40.954835499356044,25033.333333333336
65.0174159934434,58.59287554150568,40.920179135932564,25066.66666666667
65.38618478577675,59.004138735062654,41.38892451180414,25100.0
64.95539164032314,58.59925652733872,40.8707411310151,25133.33333333333
64.96575342465754,58.60136400889825,40.902616789603094,25166.66666666667
64.96619248331578,58.6081255122351,40.783690434375366,25200.0
64.93203143326296,58.3067968566737,40.9401243255923,25233.333333333336
64.61326356634723,58.16932212358164,40.44652830854254,25266.666666666664
64.60967722970193,58.17496619436768,40.40734317126228,25300.0
64.69378837978272,58.184636277751544,40.53238663202645,25333.33333333333
64.62240198393954,58.19573689182806,40.42238427019368,25366.66666666667
64.6696681624941,58.18882853094003,40.41243504959849,25400.0
64.63582992350115,58.26931744055032,40.383027930973135,25433.33333333333
64.77757874309599,58.0542170473205,40.63361695775489,25466.666666666664
64.81612180922528,58.05090311986864,40.6961038961039,25500.0
64.61209135691895,58.074817136886104,40.35984475294821,25533.333333333336
64.52467300832342,58.054250891795476,40.39063614744352,25566.66666666667
64.87261444795689,58.624429223744286,40.874312141435425,25600.0
65.65851684873707,59.426478238252116,41.719842783654116,25633.33333333333
65.57676797194624,59.312390414961996,41.47434248977206,25666.66666666667
65.59783752191701,59.29132086499124,41.50181180596143,25700.0
65.55579805034192,59.231776516804885,41.43139822493816,25733.333333333336
65.64083000982602,59.402346685162705,41.56895555170221,25766.666666666664
66.00817313226659,59.85515713134569,42.02187176240359,25800.0
65.83048198002605,59.70872774641772,41.90302503980315,25833.33333333333
65.415747575626,59.2407873787813,41.433405702706615,25866.66666666667
65.42220292372268,59.24481111593575,41.44869011434361,25900.0
65.22990381812882,59.072515301661326,41.17849023608277,25933.33333333333
65.08324552160168,58.52133825079031,41.16918393630722,25966.666666666664
64.85610584240722,58.53310502283105,40.85110057370331,26000.0
64.95034981480393,58.57986948086307,40.97712975483568,26033.333333333336
64.83558716777895,58.57908909963705,40.83465050930804,26066.66666666667
64.86787261444796,58.55614096709986,40.83538227373844,26100.0
64.89327947547126,58.55997541271514,40.990369980096006,26133.33333333333
64.8359691927803,58.61758480804279,40.94120759597861,26166.66666666667
64.83471955009621,58.496492526269066,40.8414385082137,26200.0
64.5762319871909,58.25653798256538,40.52294965308664,26233.333333333336
64.6488109393579,57.96367419738407,40.6121581450654,26266.666666666664
64.62128418549347,57.97809155766944,40.61082045184305,26300.0
64.51887633769323,58.03424494649227,40.41055291319857,26333.33333333333
64.25343328335832,57.696011994003,39.952683658170905,26366.66666666667
64.20668665667166,57.71826086956522,39.884707646176906,26400.0
65.00127498072703,58.20292949060072,40.96089070746605,26433.33333333333
64.58916256157636,58.093088520674726,40.46780116435289,26466.666666666664
64.50181331747919,58.04533293697978,40.40588585017836,26500.0
64.98165873959572,58.55190249702735,40.86275267538645,26533.333333333336
64.6143628185907,58.20497751124438,40.413673163418295,26566.66666666667
64.39198915825929,57.74067158560458,40.22725493148622,26600.0
64.30606836319829,57.75702454449632,40.03315765697936,26633.33333333333
64.5377824019025,58.0397146254459,40.32737812128417,26666.66666666667
64.54111177170036,58.03917954815696,40.34667063020214,26700.0
64.94932094773354,58.61687929919454,40.881827267917,26733.333333333336
64.6544209215442,58.231156970883,40.480193322659076,26766.666666666664
64.50401552470518,58.03475145544111,40.30759814897746,26800.0
64.42983405483406,57.85780423280424,40.09761303511304,26833.33333333333
64.63230148846587,58.206695131352674,40.448170550910284,26866.66666666667
64.63843918638439,58.200260926288315,40.47853288264247,26900.0
64.45622188905547,57.54608695652174,40.26806596701649,26933.33333333333
64.56339752201822,58.06123301985371,40.36050156739813,26966.666666666664
64.44098725348725,57.8661014911015,40.2093253968254,27000.0
64.49947753396029,58.08529631288252,40.33637856396477,27033.333333333336
64.19886056971514,57.652413793103456,39.91460269865068,27066.66666666667
64.20098950524738,57.65382308845577,39.905577211394295,27100.0
64.13331334332834,57.68770614692654,39.825037481259365,27133.33333333333
63.78352657732268,57.264869748531844,39.368860111429,27166.66666666667
64.12281859070465,57.70434782608696,39.81424287856072,27200.0
63.93976810721277,57.13735883150128,39.60749887065201,27233.333333333336
63.914549304295214,57.27661826981246,39.42413793103447,27266.666666666664
63.92262552934059,57.26651542649728,39.453115547489396,27300.0
64.34518897756362,57.69585905737088,40.00126486974853,27333.33333333333
64.28263815690407,57.71805450986297,39.913507001957534,27366.66666666667
64.4164734226773,57.70100888420418,40.05191989158259,27400.0
64.54292631081721,58.19485120453472,40.42805266887105,27433.33333333333
65.23707373943456,59.010375983678216,41.332905858350344,27466.666666666664
65.59091960002311,59.37468932431651,41.698832437431356,27500.0
65.57992802414674,59.45115509635478,41.58822846528906,27533.333333333336
65.67120385419085,59.423467610866034,41.65312282331089,27566.66666666667
65.48022697512003,59.21996217081333,41.28357340317183,27600.0
65.61159084323384,59.06609678354101,41.53535207186323,27633.33333333333
65.48194383820747,59.20829332169358,41.4114651534992,27666.66666666667
65.58097797815155,59.35792728744004,41.631264088781,27700.0
65.99982732819157,59.79981581673765,42.04613215149072,27733.333333333336
65.9213479912513,59.830062161851046,41.99248877633246,27766.666666666664
65.26942582337512,59.01034683765666,41.253162343340136,27800.0
65.1871174584669,59.03034100845234,41.12491984844068,27833.33333333333
65.48711745846693,58.98382395802973,41.658029728942,27866.66666666667
65.5454386476246,58.96686097347712,41.73552900029145,27900.0
65.28810842320023,59.037802389973784,41.36079860099097,27933.33333333333
64.88496663154197,58.62079967216953,40.87223393045311,27966.666666666664
64.72189802534629,58.42964927792514,40.65794282346006,28000.0
64.79961685823754,58.37768936044798,40.680901856763924,28033.333333333336
64.73819628647215,58.37807250221043,40.633952254641905,28066.66666666667
64.72458001768346,58.373887415266715,40.64638962569997,28100.0
64.94385325415956,58.6156740549121,40.93056617085072,28133.33333333333
64.57271492678319,58.19709494567786,40.459317430325925,28166.66666666667
64.779843444227,58.182114688964006,40.6979481705509,28200.0
64.45891795481569,58.06082045184304,40.25225921521997,28233.333333333336
64.59597897968824,58.20184813415211,40.459287907416154,28266.666666666664
64.57507675956542,58.19739017477563,40.49132026452528,28300.0
64.49710675484178,58.209612659423726,40.39776216343883,28333.33333333333
64.75996417375728,57.997880280638896,40.698372891476346,28366.66666666667
64.48210180623974,58.04669353634871,40.35653082549634,28400.0
65.62558045042954,59.41583468771768,41.74091595077781,28433.33333333333
65.93389547599863,59.80180154253482,42.018965120294695,28466.666666666664
65.86599415372271,59.745858886914654,41.95156760474581,28500.0
65.83306882123793,59.604097532823545,41.81087866108786,28533.333333333336
65.83216458997393,59.70046363372936,41.82700666473486,28566.66666666667
65.66602648043067,59.17343227120617,41.53865851884184,28600.0
65.63502109704642,59.44032136870701,41.55389861857696,28633.33333333333
66.01643260043744,59.83745827097962,42.05695291815356,28666.66666666667
66.03234718544952,59.81630597444458,42.09629331184529,28700.0
65.9878841947738,59.78557039254058,41.97697709220674,28733.333333333336
65.71954997077732,59.19298655756867,41.683196960841606,28766.666666666664
65.31915708812261,58.87032124963161,41.135691128794576,28800.0
65.871894590202,59.38051427908057,42.0853262131414,28833.33333333333
65.27283590789857,58.936228504809094,41.38880792771785,28866.66666666667
65.23112795103468,58.95744680851064,41.42066452929175,28900.0
65.1189052704899,58.93443812398422,41.268864638959826,28933.33333333333
65.06115045275133,58.95034246575342,41.23711400046436,28966.666666666664
64.78271640921014,58.48204605071408,40.843923054503065,29000.0
64.70338093850191,58.52652287962693,40.70081608860391,29033.333333333336
64.84539281114624,58.52543613160051,40.871911954103744,29066.66666666667
64.86737501463529,58.51800140498771,40.85001756234633,29100.0
64.78058775319049,58.55371150919096,40.77043086289662,29133.33333333333
64.82970378175858,58.546306053155355,40.836992155485305,29166.66666666667
65.17866511221219,59.00772369571553,41.19454969396678,29200.0
64.9004214963119,58.61687741482262,40.89515279241305,29233.333333333336
65.07236977256052,58.891357300073366,41.06450476889215,29266.666666666664
65.04390315480558,58.90250917094644,41.06699926632428,29300.0
64.81010904804008,58.35340406719717,40.81853816681403,29333.33333333333
64.75447683883381,58.465532040846526,40.698386858073114,29366.66666666667
64.58724732461356,57.96935196195006,40.461652794292505,29400.0
64.45499405469678,58.055707491082046,40.208145065398334,29433.33333333333
64.49833531510107,58.05624256837099,40.27889417360285,29466.666666666664
64.58226600985222,58.10147783251232,40.29174503657264,29500.0
64.46510107015457,58.08323424494649,40.164655172413795,29533.333333333336
64.50719381688467,58.03207491082046,40.301189060642095,29566.66666666667
64.10011994002997,57.68749625187407,39.842998500749616,29600.0
64.3303448275862,57.571694152923534,40.11964017991004,29633.33333333333
64.16393740902474,57.52010553129549,39.71970524017467,29666.66666666667
64.04664855072464,57.46455314009662,39.621980676328505,29700.0
64.98591921923688,58.60021165265448,40.91157622435181,29733.333333333336
65.96364372001618,59.8806716374776,42.09097740015028,29766.666666666664
66.23745251525267,59.6834637964775,42.50192816852768,29800.0
65.98014274202832,59.732157246460226,42.18078738344653,29833.33333333333
65.39304969526489,59.000205110173475,41.269016643225505,29866.66666666667
65.42996952648852,58.98426511954993,41.28249531176747,29900.0
65.16457813646367,58.81214966984592,40.99982391782832,29933.33333333333
65.57860817293798,59.391335760938674,41.54921680827698,29966.666666666664
65.46529296650165,59.325716588005065,41.518965120294695,30000.0
65.4726029390368,59.246297104612246,41.451127600756585,30033.333333333336
65.14373710580607,58.92042440318302,41.08720895962275,30066.66666666667
65.15573239021515,58.90029472443266,41.06012378426171,30100.0
65.33809385018945,58.92567764500146,41.49111046342174,30133.33333333333
64.84185107130313,58.54317410139328,40.88198103266596,30166.66666666667
64.9535540008231,58.60800164618731,41.0043506378976,30200.0
64.85200796159701,58.55845334269992,40.83163563985481,30233.333333333336
65.17410139327947,58.462299496546066,41.31026811848729,30266.666666666664
65.19043437536588,58.45296218241425,41.3243765367053,30300.0
64.89125980564337,58.49622409553916,40.89702610935488,30333.33333333333
64.9028216836436,58.52979744760567,40.89851890879288,30366.66666666667
64.83596768528274,58.52713382507904,40.828386605783855,30400.0
64.8518323381337,58.56243414120128,40.88338602037232,30433.33333333333
64.83696288490809,58.54068610232994,40.76606954689147,30466.666666666664
64.81904929165204,58.54733052335793,40.79838426413769,30500.0
64.93914646996839,58.51159114857745,41.03989579674512,30533.333333333336
64.48841789640778,58.13107766476571,40.47057440178729,30566.66666666667
64.2007946391508,57.749599715353135,40.08411907726976,30600.0
64.17519356759975,57.827278141751044,39.96384752829065,30633.33333333333
64.3382966051221,57.76250744490768,40.15810005955926,30666.66666666667
64.73818419023898,58.173456680305996,40.64256063571132,30700.0
64.18755211435378,57.828916021441316,40.00336509827278,30733.333333333336
64.55104042806182,58.00434007134364,40.442806183115344,30766.666666666664
64.51759565422769,58.13866910722721,40.42902692489372,30800.0
64.16450216450217,57.69444938623021,40.010259147245456,30833.33333333333
64.52264407179972,58.14534128483704,40.418811998110534,30866.66666666667
64.53209140292867,58.13329593764762,40.4179263108172,30900.0
64.1492616972069,57.71223981497954,40.023008954515795,30933.33333333333
64.09592006167348,57.74704975389907,39.92957955286722,30966.666666666664
64.2050327575938,57.79523525908279,39.9289755807028,31000.0
64.17668254913639,57.7946992257296,39.94481834425253,31033.333333333336
64.6514230042513,58.10554440245631,40.58334317430326,31066.66666666667
64.67229570146435,58.089483939537075,40.64475082664148,31100.0
64.23231089934485,57.81512805241215,39.967718880285894,31133.33333333333
64.15978770088358,57.751527011800974,40.032230326750884,31166.66666666667
64.1745979749851,57.80014889815366,39.965485407980935,31200.0
64.44339678586253,57.61237620826662,40.37241297515271,31233.333333333336
64.10410365889818,57.73189823874755,39.97705034691336,31266.666666666664
64.10392575461069,57.70675443278183,39.961750578188926,31300.0
64.50814832309872,58.12337623996221,40.496929617383095,31333.33333333333
64.16006551518761,57.740023823704576,40.03713519952353,31366.66666666667
64.49534483781059,58.1959615726739,40.518857854474284,31400.0
64.04599700149926,57.631124437781104,39.88677661169415,31433.33333333333
64.12359820089955,57.64740629685158,39.86407796101949,31466.666666666664
64.13748125937032,57.63223388305848,39.876581709145434,31500.0
64.20247170935079,57.75568790946992,39.993031566408575,31533.333333333336
64.30053603335318,57.7160810005956,40.15905300774271,31566.66666666667
64.19002382370458,57.78341274568195,40.033502084574145,31600.0
64.48968502761606,58.07526496492014,40.30061203164652,31633.33333333333
64.5151811658661,58.222172804364575,40.37469608017553,31666.66666666667
64.49481112494811,58.23848069738482,40.36752060724663,31700.0
64.63535551206782,58.21959319219593,40.60371819960861,31733.333333333336
64.1173615247171,57.778082191780825,39.99916617033949,31766.666666666664
64.21882246649601,57.6174371329619,39.88381267881343,31800.0
64.08929535232384,57.54086956521739,39.81577211394304,31833.33333333333
64.12,57.5232083958021,39.89898050974513,31866.66666666667
64.14509745127437,57.52164917541229,39.89346326836582,31900.0
64.12373436569385,57.73561643835615,39.931953543776046,31933.33333333333
64.17954139368672,57.72322811197141,40.008963668850505,31966.666666666664
64.14234663490173,57.73984514592019,39.98859440142942,32000.0
64.15491363907087,57.70202501488981,39.99234663490173,32033.33333333333
64.036011994003,57.52557721139431,39.82029985007496,32066.66666666667
64.01223388305847,57.5479460269865,39.81400299850075,32100.0
64.29851101846336,57.62555092316856,40.260839785586654,32133.33333333333
64.76027397260273,58.489843109706115,40.83087460484721,32166.666666666664
65.70980380775482,59.29513002089622,41.8803401439517,32200.000000000004
65.50444044578593,59.32374622707221,41.59417808219178,32233.333333333336
65.52150568841421,59.35468423496634,41.59136289760855,32266.666666666664
65.58431042488972,59.325284420710474,41.596993266775016,32300.0
65.87168371770417,59.797121553667424,42.00991272180799,32333.333333333336
65.9527167031196,59.711062507194654,42.01528145504778,32366.66666666667
65.25320596323635,59.12517006802721,41.349978289188016,32400.0
65.32334635982053,59.12476479953683,41.341149225647705,32433.33333333333
65.26565349544073,59.152207265885075,41.37073382544507,32466.66666666667
65.25534809668548,59.159907367202216,41.36233897814446,32500.0
65.21479229989869,59.1313938341294,41.32285424808221,32533.33333333333
64.70779182765484,58.515396323615505,40.67989696756821,32566.66666666667
64.71446551926005,58.52288959138274,40.75585411544316,32600.0
64.75116114997942,58.586160268093366,40.75900993591628,32633.33333333333
64.71250590458196,58.0073807274445,40.83856872933397,32666.666666666664
64.92240186117739,58.24436787702094,41.126512942839476,32700.000000000004
64.8387324357693,58.471691457463706,40.93500499735435,32733.333333333336
64.80578972017328,58.46800725910314,40.88804004214963,32766.666666666664
64.44030467642891,58.10702054794521,40.35495394426075,32800.0
65.65513663092355,59.5611091894385,41.84457511818287,32833.333333333336
65.95895501057565,59.959355170639675,42.19224832790261,32866.666666666664
65.9409478076945,59.97430400731721,42.190533356199616,32900.0
65.56941406699666,59.21417059974675,41.746834350178425,32933.33333333333
65.96536020265847,59.885008396664105,42.15646258503402,32966.66666666667
65.40564527862651,59.19880692565111,41.313778553761104,33000.0
65.54181839200047,59.38763655280043,41.57531356568985,33033.33333333333
65.65954820746865,59.543184362352534,41.824219983352,33066.66666666667
65.54887000751401,59.397838275244204,41.60502283105023,33100.0
65.54196289231837,59.39402346685164,41.59025489856078,33133.333333333336
65.35342465753425,58.96785193821044,41.55977849023608,33166.666666666664
65.43298075255765,59.372088318594294,41.68455580602277,33200.0
65.18029728942,58.99373360536286,41.32862139317983,33233.333333333336
64.80160402763143,58.55816063692776,40.855871677789494,33266.666666666664
64.80116496897318,58.57259103149514,40.82885493501932,33300.0
64.88839128907622,58.572708113804005,40.90747570542091,33333.333333333336
64.81439526987472,58.624546306053155,40.85083713850837,33366.666666666664
64.92968428479041,58.64877417837616,40.97219119289788,33400.0
64.5096539914974,58.21191544638639,40.50867973547472,33433.33333333333
64.20765336509828,57.829035139964255,40.14737939249553,33466.66666666667
64.30860800382844,57.887150804570204,40.19551953101632,33500.0
64.11405598570579,57.855002977963075,40.07313877307922,33533.33333333333
64.12665276950564,57.84851101846336,40.019446098868364,33566.66666666667
64.52173397378877,58.255263001838344,40.44123228369804,33600.0
64.72399031648561,58.09633325460558,40.81415328294757,33633.333333333336
64.43814950401512,58.13235120453472,40.40257439773264,33666.666666666664
64.43986183278224,58.123641946150215,40.382971185640066,33700.0
65.2679403676364,59.1228253003329,41.457461282385296,33733.333333333336
65.99785628537128,59.97713371062711,42.15806322529011,33766.666666666664
65.90963508691148,59.81670887533095,42.01787153217453,33800.0
65.88799355358583,59.79987337400714,41.96218487394958,33833.333333333336
65.96653044779556,59.78542649936686,42.01220214113042,33866.666666666664
65.95901922412801,59.80341314608035,41.99217221135029,33900.0
65.52858216288075,59.38255014161032,41.47335414137911,33933.33333333333
66.05067917577989,59.76600092091631,42.13200759755957,33966.66666666667
66.53400995137397,60.64805495872442,42.79302838403257,34000.0
66.57180820988353,60.65314372950356,42.860256700214855,34033.33333333333
65.58009326726902,59.49723112795103,41.589274264062965,34066.66666666667
65.62081025939959,59.493675313319734,41.59795977849024,34100.0
65.64585323491099,59.0739325517441,41.790360399478935,34133.333333333336
65.39569160997732,59.21451828594686,41.59067387638815,34166.666666666664
65.33194384136635,59.20460269214068,41.486553770444345,34200.0
64.91707331412782,58.63495796343113,40.89302722088306,34233.333333333336
64.63327996204708,58.231186621597566,40.556632864852034,34266.666666666664
64.67262646029769,58.2007946391508,40.57729941291585,34300.0
64.61264306469786,58.24307655814505,40.47325505544684,34333.333333333336
64.31844828617575,57.91415923909793,40.110247053897226,34366.666666666664
64.30427110127415,57.911108452473535,40.09636896572352,34400.0
64.22659321024419,57.873079213817746,40.0629839189994,34433.33333333333
64.31796973141114,57.95417838128851,40.00038882574625,34466.66666666667
64.66944609886838,58.3935973793925,40.417778439547355,34500.0
65.63971520811715,59.66571543871786,41.8076213536262,34533.33333333333
65.88747553816047,59.91173592724761,41.957810521468865,34566.66666666667
66.27210199148152,59.765367790952,42.4274490618165,34600.0
65.68085659788451,59.43720016184035,41.641928212242064,34633.333333333336
65.99320800137559,59.848913853384545,42.03166733535851,34666.666666666664
66.00624749240558,59.83575972946639,42.04573852238208,34700.0
65.94990542786726,59.804522267438536,41.97498137215568,34733.333333333336
65.71949598289116,59.42668053869718,41.627824981214964,34766.666666666664
65.95176821230011,59.8370780076804,41.925030091133145,34800.0
67.04779986598169,61.085269153450966,43.246146973419705,34833.333333333336
66.04773290069166,60.02911792331996,42.17929012609228,34866.666666666664
66.17853104150176,60.21573561008707,42.377756417505374,34900.0
66.2067571798594,59.984117496370935,42.45125665328893,34933.33333333333
65.71700108614874,59.624878522837705,41.804493225861776,34966.66666666667
65.36397551734188,59.15187991839114,41.42156805596037,35000.0
65.03330589687812,58.755982127109185,40.94388265036157,35033.33333333333
64.87762753897024,58.30783538025508,40.732050070854996,35066.66666666667
64.8925661313179,58.30446976854039,40.76673948984412,35100.0
64.68128446895571,58.367579908675786,40.607987902508455,35133.333333333336
64.7009725434383,58.36458518650299,40.66723003024373,35166.666666666664
64.65883887801697,58.3765640751942,40.56760362924747,35200.0
64.35199523525908,57.930613460393104,40.20628350208458,35233.333333333336
64.68973492261163,58.36494099507797,40.56300776848722,35266.666666666664
64.30241215008934,57.94892793329362,40.11962477665278,35300.0
64.43508040500298,57.84192972007147,40.36098868374032,35333.333333333336
65.69264330204656,59.68199431671403,41.91248313671461,35366.666666666664
66.61776677198077,60.608288503686,42.82765491133692,35400.0
66.15106042416967,60.161979077345215,42.31138169553535,35433.33333333333
66.40353284170811,60.0549934259418,42.64720173783799,35466.66666666667
66.42565597667638,60.051449151089,42.64211398845252,35500.0
66.15739035340164,59.94399677679291,42.17511799240244,35533.33333333333
66.47902017950037,60.03875836048705,42.6363974161093,35566.66666666667
66.20055110651856,60.084215964866964,42.40580958121645,35600.0
65.74782331088926,59.45742396099373,41.800702345019744,35633.333333333336
66.04653744342926,59.979421057125776,42.28483192440157,35666.666666666664
66.05482025446162,59.966982608943155,42.288702928870286,35700.0
65.3202564849898,59.092218012241325,41.38627222384145,35733.333333333336
64.87191195410375,58.70053272450533,40.906948835031024,35766.666666666664
64.7767004684813,58.284706161418505,40.84270295914131,35800.0
64.5751942121805,58.36855838225701,40.53724129751527,35833.333333333336
64.62263535551206,58.35228013995136,40.59425962165688,35866.666666666664
64.41332972582973,57.99413780663781,40.23659211159211,35900.0
64.93995040151157,58.75918162494096,40.99391828058574,35933.33333333333
65.01834323005468,58.62414016109118,41.173437591863134,35966.66666666667
64.55906422344778,58.387297633872976,40.545632449742044,36000.0
64.89456205894562,58.22765818656229,40.933760303623316,36033.33333333333
64.48529631288253,58.07463800567249,40.447738468428135,36066.66666666667
64.47305567995224,58.091207642931785,40.39596954769369,36100.0
64.62079701120797,58.30107335586789,40.642530984996746,36133.333333333336
64.08196870451239,57.560680494905384,39.77228893740902,36166.66666666666
63.79790369132614,57.18562965213429,39.419656691478046,36200.0
63.7319763025976,57.18216618562965,39.38347258089017,36233.333333333336
63.64497674987764,56.95242902594224,39.24354503181596,36266.66666666666
63.66241434165443,56.94490332843858,39.23421439060206,36300.0
63.60300416054822,56.97858541360746,39.119340430739115,36333.333333333336
64.14918372319688,57.354532163742675,39.82264254385965,36366.66666666666
64.90797709022202,58.69307982994805,40.94892536608408,36400.0
65.94035026877059,59.87451592393503,42.18010519623143,36433.33333333333
65.93650656031443,59.879197734235014,42.081816079995384,36466.66666666667
65.97725564996243,59.8608750939252,42.10363562799838,36500.0
65.88835035987927,59.294723705595544,42.02527861620618,36533.33333333333
65.65718597631762,59.26262479684235,41.75081263060135,36566.66666666667
66.0510664123461,59.75914687012311,42.16666666666666,36600.0
66.06205689026666,59.97551594477454,42.3247797009099,36633.333333333336
65.72527599560719,59.28220912086008,41.92000462401017,36666.66666666666
66.22363231006689,59.898445092322646,42.60329846224204,36700.0
65.58974138178478,59.55294354028531,41.87930193174317,36733.333333333336
65.23166724316846,59.13297013720742,41.41868442292171,36766.66666666666
65.18012241329059,59.03150684931507,41.303031186243075,36800.0
64.64684695323571,58.15921705243269,40.698305384978745,36833.333333333336
64.55995374488525,58.28159283638736,40.46278835319931,36866.66666666666
64.54079938326514,58.30685524521141,40.437348040087755,36900.0
64.53330184222958,58.21988663202647,40.402692489371745,36933.33333333333
64.57747731720335,58.28233410425191,40.38145644310029,36966.66666666667
64.47273001054057,57.66023189278723,40.32754103297696,37000.0
64.20505947899413,57.65029363047734,40.00225869597952,37033.33333333333
64.18557446167746,57.6901069116097,40.104140942629115,37066.66666666667
63.8202661826981,57.26128251663642,39.66521476104053,37100.0
63.81330913490623,57.26999395039322,39.60175438596491,37133.333333333336
63.83089776697554,57.0648032811788,39.61409691629957,37166.66666666666
63.71964150083549,57.14443262950023,39.41567674312625,37200.0
63.667871790976754,57.1852043141425,39.39887589245025,37233.333333333336
63.32856270979554,56.70131217577052,38.89743667989014,37266.66666666666
63.34525480622521,56.6957583155325,38.89517851693622,37300.0
64.68336001897646,58.11792089189349,40.83487517049161,37333.333333333336
65.7244174265451,59.6774352294109,42.03928209581704,37366.66666666666
65.59699326677503,59.427414673786856,41.8048525655909,37400.0
65.55955421407012,59.48470513118179,41.641891107499426,37433.33333333333
65.85099127218079,59.3386220449685,41.939512166926775,37466.66666666667
66.24876251870612,59.763468401059065,42.4135202026016,37500.0
65.90869490456812,59.74789362067978,41.9172923711813,37533.33333333333
65.95881777368481,59.8394439967768,42.08512720156556,37566.66666666667
65.54777107035059,59.40881123752033,41.672596935221726,37600.0
65.60544217687075,59.51232813800626,41.85499009730474,37633.333333333336
65.14122104538018,59.02327850971612,41.28775223169437,37666.66666666666
65.50625964671583,59.47038815526211,41.748270736866175,37700.0
65.51960784313725,59.46298519407763,41.786514605842335,37733.333333333336
64.797221016066,58.65068750904617,40.929743812418586,37766.66666666666
65.0795104366533,58.619629048200466,41.302343159486014,37800.0
64.63171475486746,58.31066737039643,40.65763546798029,37833.333333333336
64.54304440245629,58.145282239017476,40.54924421350969,37866.66666666666
64.54829948039679,58.13542158715163,40.583904109589035,37900.0
64.55793749629366,58.222587914368745,40.524343236672,37933.33333333333
64.67574988190836,58.102503542749176,40.85536726499764,37966.66666666667
64.16724240619415,57.758755211435385,40.19267421083978,38000.0
64.57157682500149,58.176896163197526,40.62088596335172,38033.33333333333
64.13886241810602,57.74410363311496,40.084038117927335,38066.66666666667
64.14356759976177,57.74127456819535,40.064979154258495,38100.0
64.22956521739131,57.52419790104948,40.13406296851574,38133.333333333336
64.00425787106447,57.637781109445285,39.8768815592204,38166.66666666666
64.17184159012197,57.686282186417706,40.030567685589524,38200.0
64.24896811628881,57.83974397320093,40.14111383621464,38233.333333333336
64.27280612550099,57.84844768798229,40.10707662858169,38266.66666666666
64.26736256505355,57.84022252796554,40.1285517736436,38300.0
64.10753424657534,57.81054198927933,39.99857057772483,38333.333333333336
64.42211521205958,57.75441167673626,40.28429143985165,38366.66666666666
64.2887479810971,57.85317341628283,40.080337381109054,38400.0
64.41081000595592,57.65699821322215,40.48531864204885,38433.33333333333
64.52606297811776,58.15883887801696,40.58729170373007,38466.66666666667
64.21615720524018,57.78955554226236,40.18397439732009,38500.0
64.23347490578453,57.77941616318718,40.229496919303706,38533.33333333333
64.42418312281325,58.15949119373777,40.54687777975449,38566.66666666667
65.7372123317412,59.584831379360246,41.97113909393545,38600.0
65.46185191607421,59.31321888908155,41.654066238945724,38633.333333333336
65.71665312282333,59.273885535175296,41.960181100534015,38666.66666666666
65.78996401207337,59.254585558393316,41.999535639656365,38700.0
65.65021958150349,59.449754585378464,41.82077556761101,38733.333333333336
65.54260506152775,59.323339911771534,41.70704666821454,38766.66666666666
65.19811839629469,59.09156173107541,41.45922709509336,38800.0
65.33272543059778,59.01890288030106,41.71561731075409,38833.333333333336
65.2878274714141,59.08536691272253,41.522101606600096,38866.66666666666
65.28568533796498,59.091735417571286,41.515935735996536,38900.0
65.3712548849327,59.14960196844695,41.6463453466493,38933.33333333333
64.88280634142069,58.75124813874047,41.00820414002511,38966.66666666667
64.81218766535363,58.60200482097714,40.93544594038449,39000.0
64.45368558382256,58.20177311273201,40.48223922196525,39033.33333333333
64.5935480045069,58.148520429342355,40.746990452469895,39066.66666666667
64.57835380255078,58.07079593764762,40.76257675956543,39100.0
64.53080709245093,58.19006108047204,40.55841190772698,39133.333333333336
64.52876119314476,58.223329182233286,40.52413568166993,39166.66666666666
64.2424178979482,57.86507746605253,40.123497038942396,39200.0
64.16036331149493,57.80637284097677,40.0767718880286,39233.333333333336
64.12361524717093,57.78889219773674,40.03963668850506,39266.66666666666
64.11459201905896,57.79794520547945,39.9959797498511,39300.0
64.2205777248362,57.7485407980941,40.226771888028594,39333.333333333336
65.57039524670628,59.610149545050106,41.857688222968505,39366.66666666666
66.1508576033153,59.73834465292967,42.49792793829861,39400.0
65.43303855268482,59.324374313623494,41.62548407606496,39433.33333333333
65.47268943991675,59.339402346685155,41.663661060054324,39466.66666666667
65.47578174671986,59.33937344662158,41.68270620195364,39500.0
65.78767123287672,59.77889374928054,42.06952918153564,39533.33333333333
65.842619102153,59.69537333944114,42.33016491067338,39566.66666666667
65.17672600955275,59.142162396873644,41.477058908669854,39600.0
65.23198431915141,59.085408739767104,41.55029978092932,39633.333333333336
65.11769283984779,59.10028248587571,41.44105269226335,39666.66666666666
65.12224720396634,59.10224259195203,41.427303124639685,39700.0
65.30975441023868,59.028767439179056,41.61570390868211,39733.333333333336
64.98182186000811,58.88148083925786,41.1817524998555,39766.66666666666
65.20855937311633,58.999913889606475,41.614799506300415,39800.0
64.65316234334013,58.488574759545315,40.79221801224133,39833.333333333336
64.93426943426942,58.690127332984474,41.230652944938655,39866.66666666666
64.98578405721263,58.67567881853596,41.24140938426653,39900.0
64.51574595355383,58.33394909688013,40.593068261787465,39933.33333333333
64.93296546086246,58.76275145251234,41.11211351493387,39966.66666666667
64.81403519130846,58.658419933868686,40.881524563060935,40000.0
64.6274091205598,58.094081717369384,40.78942062503707,40033.33333333333
64.49350649350649,58.196880744825954,40.563156022060134,40066.66666666667
64.49688667496886,58.19741445768842,40.483365949119374,40100.0
64.47346261044889,58.19412322836981,40.50610804720394,40133.333333333336
64.47141671114274,58.20269228488407,40.44075787226472,40166.66666666666
64.64783846290696,58.13918045424894,40.679653679653676,40200.0
64.50412144932693,58.25007412678645,40.42729644784439,40233.333333333336
64.4385923476618,58.21162021728862,40.4475673122343,40266.66666666666
64.41828058573454,58.22325224374114,40.43747047709022,40300.0
64.76791698512552,58.64298312658005,40.79704862131813,40333.333333333336
66.00698579935867,59.68331997251489,42.37634562528631,40366.66666666666
65.48081611330393,59.436266542837245,41.65431274669143,40400.0
65.5130917288018,59.380267036587476,41.6282006820415,40433.33333333333
65.52977710703506,59.424947759461354,41.59066635709311,40466.66666666667
65.53796145809147,59.43333526816811,41.560511957278855,40500.0
65.6257152765736,59.28665973065141,41.89130686087509,40533.33333333333
65.28716785859643,59.23251351822782,41.48831327402756,40566.66666666667
65.26021518019873,59.06517137985772,41.360044682227056,40600.0
65.23335659049944,59.22603058317344,41.50043607186464,40633.333333333336
65.31272253582284,59.103719785786645,41.767115356781005,40666.66666666666
65.32655955999421,59.102475032566225,41.79525256911276,40700.0
65.24917146345717,59.22858887144603,41.517442874585726,40733.333333333336
65.3167626024769,59.188383045525896,41.59238909238909,40766.66666666666
65.26135240420955,59.2012617012617,41.553375196232345,40800.0
64.95687577165029,58.56243753307073,41.064318889999406,40833.333333333336
64.82321681624941,58.641237600377906,40.880255077940475,40866.66666666666
64.80432215399149,58.65458195559754,40.85040741615494,40900.0
64.84553613604157,58.65871516296647,40.92988308927728,40933.33333333333
64.43527249006699,58.23868825238689,40.41267864555536,40966.66666666667
64.39610888049127,58.18873996221068,40.4963982050071,41000.0
64.43972009725434,58.260333274031886,40.42750400284647,41033.33333333333
64.61059716539168,58.18012809108698,40.69524995552393,41066.66666666667
64.65789005515033,58.173456680305996,40.75057818893436,41100.0
64.48662752772341,58.24435153887209,40.47384806973848,41133.333333333336
64.4706457925636,58.23928126667853,40.59494158809228,41166.66666666666
64.44642115874993,58.24624918460536,40.45848899958489,41200.0
65.15700737618546,59.040012879053975,41.30830698981384,41233.333333333336
65.37833073232761,59.392318363100394,41.61557135425698,41266.66666666666
65.43809496169027,59.46099373113536,41.68255166008822,41300.0
65.62293940097516,59.262450661713494,41.91775017413513,41333.333333333336
65.43737356222184,59.25105485232067,41.62259406970696,41366.66666666666
65.54487786675853,59.4741812336749,41.853841958724416,41400.0
65.42906895751103,59.35918272579522,41.659362665428375,41433.33333333333
65.58918620849781,59.298757836080796,41.987055955421404,41466.66666666667
65.6220106802879,59.27461109821221,42.01015788251684,41500.0
65.58022022368269,59.51472962066183,41.93554710019601,41533.33333333333
65.19719243629655,59.046783120027676,41.44384872593105,41566.66666666667
65.20755536257056,59.091706469821965,41.52705167173252,41600.0
65.1288193243399,59.08595641646489,41.453101579614895,41633.333333333336
64.79638351066922,58.71024478167335,41.0427059712774,41666.66666666666
64.78245828245828,58.717599860457,41.04139775568347,41700.0
64.98325484039769,58.665184022326876,41.233356590499454,41733.333333333336
64.72845685516918,58.59021191897904,40.93914646996839,41766.66666666666
64.84802716309565,58.60575459548061,41.004302774850714,41800.0
64.66461772626155,58.65235335440815,40.88754244233697,41833.333333333336
64.84804349090064,58.794610151753005,41.09561602418746,41866.66666666666
64.86914936914937,58.781295424152574,41.102098959241815,41900.0
64.73393497560116,58.698630136986296,40.851931330472105,41933.33333333333
64.95284849197483,58.53268857663589,41.19939443823858,41966.66666666667
64.3994154463864,58.18794284364667,40.41128365611715,42000.0
64.45911076995749,58.17707841284837,40.49988190836089,42033.33333333333
64.41048449267628,58.23278776018502,40.54850856905652,42066.66666666667
64.41395362628239,58.230089545158044,40.53389076676748,42100.0
64.63372472276582,58.20494573919231,40.83374844333749,42133.333333333336
64.5448615311629,58.24123821384095,40.629929431299296,42166.66666666666
64.52911700171974,58.23293601375792,40.5768843029117,42200.0
64.82515139044035,58.611881944852726,40.962461050032346,42233.333333333336
65.44979012881747,59.145491388044576,41.94777826024029,42266.66666666666
65.16282736270476,58.75895594289218,41.53960468307495,42300.0
64.96328876378139,58.79116819141449,41.23044217687074,42333.333333333336
64.99612948627727,58.80729533192587,41.24425287356322,42366.66666666666
64.69263531499557,58.46980183377698,40.834368530020704,42400.0
64.86433607520564,58.66774383078732,40.99142185663925,42433.33333333333
64.8084606345476,58.68440070505288,41.024353701527616,42466.66666666667
64.68899733806565,58.50257320319432,40.79825495415557,42500.0
64.8536621036621,58.55323505323506,41.18284193284193,42533.33333333333
65.77659574468085,59.86808510638298,42.20885566417481,42566.66666666667
65.98190704853371,60.02495283827817,42.41988223860973,42600.0
65.49602391455771,59.497068725330855,41.75818435105642,42633.333333333336
65.57058277223125,59.47144183886696,41.770344787555146,42666.66666666666
65.60807986997911,59.44984908288832,41.79710355235663,42700.0
65.55017993963315,59.444799164151384,41.708962154632,42733.333333333336
65.96514690982778,59.613460703430306,42.39261832392531,42766.66666666666
65.05540658700086,58.975400757796564,41.24998542698922,42800.0
64.84559518186113,58.645666036844595,40.96412966461975,42833.333333333336
65.094953752488,59.05189673340358,41.32273738438122,42866.66666666666
65.07914764079148,59.055877531904926,41.34050462475121,42900.0
65.20605007960631,59.13573599652627,41.563062671877255,42933.33333333333
65.07355696054326,59.05145767474534,41.4386195995785,42966.66666666667
64.96937315698811,58.68689965256489,41.38223701497767,43000.0
64.75786348403787,58.586571814921506,41.00831912516903,43033.33333333333
64.42898653857557,58.202781237027814,40.548894028346076,43066.66666666667
64.8082191780822,58.64173948984412,41.02311643835617,43100.0
64.40588863191603,58.25250548538219,40.48719089130048,43133.333333333336
64.63317450863609,58.26751042287076,40.772602739726025,43166.66666666666
64.41433908557197,58.261667556188094,40.5538753483959,43200.0
64.7052114353782,58.31762954139369,40.790708755211426,43233.333333333336
64.13498235329304,57.89059041694084,40.1555901178441,43266.66666666666
64.12974816055511,57.8960040677155,40.15693605311958,43300.0
64.85413564567457,58.76517473942368,41.16951329888179,43333.333333333336
65.82566248256626,59.93874704693593,42.24239319158625,43366.66666666666
65.95602624611489,59.76013007942903,42.38157591803846,43400.0
65.87294232761597,59.79630482329918,42.13082767353517,43433.33333333333
65.53031616669557,59.35292757644067,41.7107103635628,43466.66666666667
65.52843766256285,59.3575515866135,41.72637419802325,43500.0
65.46719842783654,59.366337205941846,41.637737703022935,43533.33333333333
65.88298607114079,59.798520778174286,42.104869344998285,43566.66666666667
65.83475307931391,59.815442615402326,42.01047542304593,43600.0
65.98658915621043,59.74021526418787,42.30246345113388,43633.333333333336
65.9400617389813,59.93445949808496,42.37943748928143,43666.66666666666
66.04071087894617,60.118413581648866,42.57693617987736,43700.0
65.6464020207239,59.49754585378455,42.04684405407733,43733.333333333336
65.82574787237071,59.875501665101176,42.188626078046276,43766.66666666666
65.16366885737345,59.06771013490142,41.48011068834313,43800.0
65.12051769860487,59.077107114032046,41.482157269687534,43833.333333333336
64.74929750614682,58.525787378527106,40.97623229130078,43866.66666666666
64.76735745228896,58.53155368223861,40.956240487062395,43900.0
64.71911954103734,58.552569956679534,40.914295749912185,43933.33333333333
64.51493327062143,58.017872890822495,40.74828032218237,43966.66666666667
64.40942371280114,58.19095418044403,40.52825342465753,44000.0
64.49196465634822,58.25369151396549,40.55242246338137,44033.33333333333
64.39962210675486,58.201080538497884,40.50395606991025,44066.66666666667
64.24901902497028,58.018638525564796,40.31846016646849,44100.0
64.11831447290054,57.80777248362121,40.07781417510423,44133.33333333334
64.08219178082193,57.8,40.02977963073258,44166.66666666666
64.48896333074116,57.78919662618891,40.59711670754322,44200.0
64.07453841572364,57.75116140559857,40.11816557474688,44233.33333333334
64.09535437760572,57.72427039904705,40.21667659321025,44266.66666666666
64.20859005802477,57.7892265358617,40.26718310701681,44300.0
64.05437760571769,57.7036628945801,40.12325789160215,44333.33333333334
64.84969781904178,58.71084055939973,41.133251583895365,44366.66666666666
65.4242512189459,59.40428372416996,41.74805549106106,44400.0
65.48031905670193,59.270244494537884,41.73102710825964,44433.33333333333
65.47578174671986,59.3055892722964,41.57106525634357,44466.66666666667
65.43491705681753,59.3263973180741,41.57294376047628,44500.0
65.59730651407432,59.245101439223156,41.87561412635107,44533.33333333333
65.45930871047915,59.33287093231605,41.62314317091497,44566.66666666667
65.46384602046125,59.35671348476966,41.59753771458297,44600.0
65.71748724709121,59.73898091362412,41.997506734682176,44633.33333333334
65.92093196538087,59.71826101908638,42.20777210981831,44666.66666666666
65.90597237347396,59.73330658565943,42.230698687453426,44700.0
65.69854416232018,59.720868917292364,42.00621883418353,44733.33333333334
65.46557019432245,59.52039381153306,41.90880909325756,44766.66666666666
65.28050535282607,59.297398411419366,41.65304477955566,44800.0
65.20261775596315,58.979304802089615,41.67088607594937,44833.33333333334
65.11227372304855,59.09696760059956,41.49123717283523,44866.66666666666
65.10031131096507,59.10362619624121,41.479937737806985,44900.0
65.16473183190156,58.79910610633852,41.65712793127467,44933.33333333333
65.01903877408871,58.86080798699791,41.43263872765265,44966.66666666667
64.77374439137357,58.609263279779995,41.14714140975539,45000.0
64.76487005058435,58.65724751439036,41.12009419152275,45033.33333333333
64.80254665968951,58.65253793825222,41.19852898424328,45066.66666666667
64.79527879527879,58.64835164835164,41.219402290830864,45100.0
64.73341473341473,58.664660736089296,41.167364381650096,45133.33333333334
65.344344517468,58.95765594373343,42.014153118874674,45166.66666666666
65.04493831430878,59.01346131673008,41.58365040931627,45200.0
64.8583982949403,58.6596595719833,41.28857551604333,45233.33333333334
64.7847362120814,58.701760532539204,41.16151353245161,45266.66666666666
64.77872178914484,58.690870339552134,41.1771043181221,45300.0
64.81099433160132,58.618593528578174,41.083077468115256,45333.33333333334
64.41573266915732,58.17553223032674,40.5883887801696,45366.66666666666
64.58880389017375,58.12930676629307,40.89521437466643,45400.0
64.82560817194144,58.60557392536611,41.1543752952291,45433.33333333333
65.14529914529915,58.98302306521485,41.46765601217656,45466.66666666667
65.07248615563975,58.945118041387346,41.430311862430784,45500.0
65.44241931739029,59.41133619688879,41.81100534014395,45533.33333333333
65.54681332714186,59.37749593684699,41.814488042721145,45566.66666666667
65.47927791966566,59.4202751335036,41.70159043417692,45600.0
66.15519334142535,59.74310733483613,42.59115080053176,45633.33333333334
65.5059786394242,59.322643371256106,41.76187021128396,45666.66666666666
65.51770373810076,59.32061179475273,41.73789760854422,45700.0
65.50409217552821,59.34472951009984,41.839766658927324,45733.33333333334
65.53701544739144,59.37260273972603,41.80288545613524,45766.66666666666
65.81913446229555,59.47427992473585,42.255753365175856,45800.0
65.48078709078244,59.291037845368,41.87073368934293,45833.33333333334
65.54202698028364,59.46607286982589,42.05488297013721,45866.66666666666
65.58635996771591,59.447307736653975,42.053326415311886,45900.0
65.13032276740483,59.05708496164423,41.58416558112607,45933.33333333333
65.20646549217977,59.09637188208618,41.65634629920344,45966.66666666667
65.23946159660446,59.160939589511024,41.65483458340601,46000.0
64.7926472310034,58.44614213792296,41.16944737150217,46033.33333333333
64.7837909342113,58.5403903815627,41.047269092833204,46066.66666666667
64.75856899288614,58.5400964195426,41.04744547004528,46100.0
64.9837732964901,58.50579105179611,41.36953965547652,46133.33333333334
64.92053718038939,58.857348111658446,41.31072601454375,46166.66666666666
65.03566274994846,58.93315074947729,41.37255941337574,46200.0
65.01743381335218,58.93344523956769,41.31510439673705,46233.33333333334
64.50848010437053,58.19910454841961,40.626608551266095,46266.66666666666
64.50432900432901,58.20737709778805,40.6202336476309,46300.0
64.73181844905639,58.593479922394025,40.977188547239706,46333.33333333334
64.89667234993239,58.482391674995604,41.280322182374036,46366.66666666666
64.44582814445829,58.169186977406156,40.60603095534602,46400.0
64.4384451165273,58.1622783609085,40.61409594971239,46433.33333333333
64.4179268220364,58.16109233232521,40.62343592480579,46466.66666666667
64.44636185732078,58.14004032497183,40.634199134199136,46500.0
64.4621360374785,58.12159758050169,40.725879143687365,46533.33333333333
64.19420350541364,57.757881198779685,40.22007537237543,46566.66666666667
64.32579307858687,57.517153328526796,40.48509973564047,46600.0
64.55932102441929,58.12817153067303,40.756670637284095,46633.33333333334
64.32222321242908,57.96236223747141,40.447078394676645,46666.66666666666
64.34408697977007,57.94709324777946,40.43614651100615,46700.0
64.27704007367139,57.93556723999643,40.387458039984544,46733.33333333334
64.15744451755697,57.76359394628223,40.21974636597476,46766.66666666666
64.50407980941036,58.23832638475282,40.57453841572365,46800.0
64.293563438416,57.730992402943116,40.40458814380571,46833.33333333334
64.18334629419154,57.775438176706345,40.29574684452953,46866.66666666666
64.17539032122988,57.78728240713047,40.307052700843464,46900.0
64.15732487886582,57.828886761978815,40.232368247891365,46933.33333333333
64.15618831129987,57.83002332954478,40.219806185320344,46966.66666666667
64.57899696675207,58.328533144859676,40.83004976882528,47000.0
65.16425373568232,59.20605849177277,41.550322693179844,47033.33333333333
65.68539586719294,59.30073136754121,42.10532273043882,47066.66666666667
65.72013582540052,59.3026178314372,42.1398014859531,47100.0
65.33112697133649,59.24821572464602,41.640439737538856,47133.33333333334
65.07577780357558,58.88739261667054,41.339012073368934,47166.66666666666
65.09726027397261,58.92491984844069,41.36639463713203,47200.0
65.60328882723542,59.20091324200914,42.03543147794925,47233.33333333334
65.57717527654236,59.65286805793135,42.09197171855399,47266.66666666666
65.5820789143574,59.640551944349404,42.14374501083362,47300.0
65.58050847457628,59.47532572350974,42.023550098005295,47333.33333333334
65.26705002875215,59.23027602070155,41.73326624496837,47366.66666666666
65.17687074829932,59.07685627442466,41.54502822405558,47400.0
65.12242003184252,59.10528296424953,41.546244029526704,47433.33333333333
65.19690259082357,59.09231437255754,41.57249963815313,47466.66666666667
65.229179331307,59.067969315385724,41.62703719785787,47500.0
64.81460395316925,58.72853347347522,41.139120025692684,47533.33333333333
65.07252342997285,58.59139879127617,41.574435782896856,47566.66666666667
64.82718752737146,58.708242095121314,41.15982015123646,47600.0
65.16694167028514,59.11480677377335,41.67688522217398,47633.33333333334
64.85303776683087,58.796475486746424,41.24343185550081,47666.66666666666
64.77320370208169,58.75189045575312,41.185571224197844,47700.0
64.70098183314714,58.58360279851843,41.027309071667936,47733.33333333334
64.35328826424717,58.23622724307656,40.52870189171559,47766.66666666666
64.87910509031198,58.8415435139573,41.25029322073657,47800.0
64.48888299908708,58.37423800689107,40.7674117265954,47833.33333333334
64.55956828559569,58.12219059479333,40.9729881990156,47866.66666666666
64.63546798029556,58.22026741731175,41.11294862772696,47900.0
64.4679802955665,58.272079521463745,40.84664555477363,47933.33333333333
64.44209215442092,58.18751111901797,40.69664353910929,47966.66666666667
64.54554289248166,58.30467944753659,40.842565597667644,48000.0
64.70690268635474,58.06635829923501,41.08008658008658,48033.33333333333
64.42756330427564,58.09903338670462,40.73293601375793,48066.66666666667
64.39453240823104,58.118454604755975,40.70373005989444,48100.0
64.92983227773868,58.68440652122918,41.30119634060521,48133.33333333334
64.87670068027211,58.69833450621628,41.275275627492384,48166.66666666666
64.50101599081191,58.25820891127014,40.79217834319875,48200.0
64.48487194758785,58.132072662299,40.6302561048243,48233.33333333334
65.36685272399558,58.95235188092331,41.85984650270365,48266.66666666666
65.37656259084831,58.94816559102273,41.88920867492296,48300.0
65.66596999541915,59.633560467246895,42.30282295006871,48333.33333333334
65.53115761072361,59.395820775567614,41.99167599529264,48366.66666666666
65.39208716259175,59.26273047800705,41.71978498352696,48400.0
65.43795156349343,59.26408878099532,41.705710652563425,48433.33333333333
65.38104733830414,59.3102421825328,41.642592913704405,48466.66666666667
65.43812398421174,59.36350708149525,41.705479452054796,48500.0
65.80375441315768,59.331065759637184,42.314532564080494,48533.33333333333
65.50641212474497,59.345875837948114,41.888079277178676,48566.66666666667
65.51729505361466,59.47564279949268,42.06030208693647,48600.0
65.56812852800695,59.50253292806485,42.02133449124332,48633.33333333334
65.169894340715,58.99241568968013,41.60165002171081,48666.66666666666
65.56915138936931,59.415513663092355,42.0570736769284,48700.0
65.45437584316427,59.364964551221334,41.924021929446894,48733.33333333334
65.14942828195107,58.96213634389926,41.626081922130545,48766.66666666666
65.4097993627831,59.38597548724132,41.91971640977066,48800.0
65.43571859123396,59.3799764631591,41.971325238956354,48833.33333333334
65.4458664821861,59.43145393750721,42.01660325147008,48866.66666666666
65.47973596218148,59.41966447595989,42.00590914331834,48900.0
65.57676741582709,59.30224748127099,42.25589138609031,48933.33333333333
65.47933241093047,59.45546523694225,42.112763749567634,48966.66666666667
66.04107465771119,59.94577915554407,42.65917506243004,49000.0
65.4373113536104,59.308277223125145,41.78674251218946,49033.33333333333
65.47776874854887,59.319857209194346,41.900888089157185,49066.66666666667
65.46427327606223,59.33872184815417,41.8757545855584,49100.0
65.45928140236823,59.35047596935222,41.81855119572789,49133.33333333334
65.470774320873,59.37883097283492,41.78758416531228,49166.66666666666
65.45237404225678,59.411191084281405,41.75850359879266,49200.0
65.57398416276516,59.266256285763816,41.86165539564187,49233.33333333334
65.4924251218946,59.37259113071744,41.77742628279545,49266.66666666666
65.52162177850012,59.348067100069656,41.78006733224983,49300.0
65.54395935589426,59.47105255604352,41.882545423232585,49333.33333333334
65.52372304854146,59.53444598178256,41.847918828548366,49366.66666666666
66.05357142857143,60.073415852827615,42.48282421076538,49400.0
66.02486030334131,60.110331850838186,42.513485003991335,49433.33333333333
65.72028473836792,59.34378139441431,42.242199833519905,49466.66666666667
65.73124946181004,59.341829558827754,42.30181692930337,49500.0
65.38373661700967,59.361204397370756,41.90028416429863,49533.33333333333
65.41660208387152,59.402967938230155,41.93409684548925,49566.66666666667
65.48991121872479,59.46529459241325,41.97826588262424,49600.0
65.1490230134607,59.08863800839485,41.597134172818066,49633.33333333334
65.11014618613403,59.07743522941092,41.5170357504704,49666.66666666666
65.11434360978434,59.073643074250974,41.51040671587784,49700.0
64.94724241627982,58.58199760590932,41.30653119616946,49733.33333333334
64.78144078144078,58.604744461887314,41.069277283563,49766.66666666666
64.86052961957316,58.67609704826137,41.183060348602964,49800.0
64.80952380952381,58.71040261598203,41.167936702578025,49833.33333333334
64.82780064815626,58.744065866690036,41.14817085632537,49866.66666666666
64.82181542144754,58.74841610463928,41.128901345946105,49900.0
65.54047042545832,59.55012683039318,41.90320534993658,49933.33333333333
65.90712322491983,59.664653000458095,42.453790655061844,49966.66666666667
65.35029708085766,59.416803008123075,41.775711128333185,50000.0
65.41505209678809,59.417951146703395,41.790923964522534,50033.33333333333
65.26885729148603,59.25695046529102,41.563406739494816,50066.66666666667
65.24689324316513,59.275706606554536,41.5774232703312,50100.0
65.36330269926594,59.261083174382975,41.67692618923761,50133.33333333334
65.42145296937339,59.47093774218549,41.81182008668446,50166.66666666666
65.32324721114387,59.292497543494605,41.62467487428472,50200.0
65.31963470319634,59.29394254667361,41.56239523726953,50233.33333333334
65.37942893474366,59.29125484076065,41.56690364718803,50266.66666666666
65.39934107855039,59.27296110051442,41.651609733541406,50300.0
65.31668689671118,59.29530084966186,41.59638171203977,50333.33333333334
65.88753309542996,59.627460573270405,42.35245193967997,50366.66666666666
65.51588262423614,59.51193358699411,41.86847111726046,50400.0
66.13828639563934,60.06748239836475,42.603480581421756,50433.33333333333
66.4244966442953,60.66445749440716,43.030984340044746,50466.66666666667
66.30346283783784,60.511880630630635,42.854448198198206,50500.0
65.73769841269842,59.82202380952381,42.21031746031746,50533.33333333333
65.32735951523465,59.41668095809752,41.78225575944664,50566.66666666667
65.74421768707484,59.80087868480726,42.221400226757375,50600.0
65.39638712627908,59.44346309952553,41.770136626079,50633.33333333334
65.55489537587187,59.42524182668849,42.186859553948146,50666.66666666666
65.57831740291053,59.425012198972425,42.211716754212226,50700.0
65.10005188516085,59.03992274876053,41.52752796033668,50733.33333333334
65.47423864060393,59.48227561066621,41.89046757943685,50766.66666666666
65.44352593358019,59.46726369872844,41.8418152070955,50800.0
65.46373317259393,59.419673354573895,41.915324779700896,50833.33333333334
65.42136685897988,59.44341111972215,41.874422342776775,50866.66666666666
65.42690662762996,59.44160280145814,41.866098338069406,50900.0
65.74448175894831,59.30462986882517,42.37653204741813,50933.33333333333
65.52323545451937,59.3932948706909,42.108958351272996,50966.66666666667
65.1420755536257,59.0048632218845,41.76190476190476,51000.0
65.08629324070054,58.997307859313935,41.66018237082067,51033.33333333333
65.48942119220571,59.41170875129714,42.1345555171221,51066.66666666667
65.47852530842846,59.40507898074485,42.15069756716246,51100.0
66.26181725658714,60.52015718647518,43.07915865656452,51133.33333333334
66.14174934428098,60.00707036150074,42.855428213023146,51166.66666666666
65.5943941823179,59.63630897846999,42.13845625286303,51200.0
65.48795111264845,59.471924362965524,41.9814366424536,51233.33333333334
65.46935893001269,59.453678081402046,42.01841923209962,51266.66666666666
65.47100196010608,59.464804565894156,41.981061916291935,51300.0
65.49921639192014,59.29042837241701,41.79321453447876,51333.33333333334
65.43974924541446,59.34798003250523,41.7190329695844,51366.66666666666
65.69100052020114,59.197387434252356,42.18033639674008,51400.0
65.75408656613331,59.678974329457816,42.19497525037411,51433.33333333333
65.36284029824866,59.2814288191434,41.732703311947276,51466.66666666667
65.361164094561,59.29275764406682,41.76452228194903,51500.0
65.34496169027165,59.32682261434874,41.784362665428375,51533.33333333333
65.90003974562798,60.01322961617079,42.666165114694536,51566.66666666667
66.29885346756153,60.61540827740493,43.0834451901566,51600.0
66.2171133789391,60.373247729056864,42.86834137041606,51633.33333333334
66.16844427071699,60.29347219119946,42.81187178914453,51666.66666666666
66.17620616484253,60.27923274514183,42.816562430198786,51700.0
66.32742349787803,60.24251731069913,43.11478110341746,51733.33333333334
65.81371058558558,59.887443693693704,42.460951576576576,51766.66666666666
65.81430180180179,59.88896396396397,42.439414414414415,51800.0
65.83447359493384,59.94241207734932,42.4718986769196,51833.33333333334
65.61204397370763,59.34355176669825,42.183874393639314,51866.66666666666
65.62211888975,59.33686385946784,42.198828898648074,51900.0
65.43600562587905,59.31329831510664,42.038032090473315,51933.33333333333
65.06381874783811,58.923527037933816,41.56796956070564,51966.66666666667
65.40710123711932,59.365911765550095,41.9957518872528,52000.0
65.57737018858177,59.29633456758231,42.18576882229685,52033.33333333333
65.45996195088205,59.42713017410354,42.055517122103076,52066.66666666667
65.41764671970483,59.44566470656059,42.04565894154272,52100.0
65.41983742649602,59.48515507898074,42.029661016949156,52133.33333333334
65.40481955494062,59.50060532687654,42.00250778277413,52166.66666666666
65.20563542265671,59.22199539965497,41.795600920069006,52200.0
65.10119774405489,59.087708587708576,41.54712483283912,52233.33333333334
65.2351590208733,58.98959241816385,41.829612186755035,52266.66666666666
65.35370902817711,59.11995399654974,42.037119033927546,52300.0
65.07642205818496,59.02880301056593,41.65691127514836,52333.33333333334
65.24049790128818,58.99574468085106,41.831263569257494,52366.66666666666
65.01725285859024,58.99701838182082,41.625792444637426,52400.0
65.23556248556248,59.21676484176484,42.02979902979903,52433.33333333333
65.11914980584508,59.07830428308663,41.73889813436104,52466.66666666667
65.12233219468045,59.10329625412396,41.76473679600596,52500.0
65.36705497649704,58.98753321070918,41.984380018101646,52533.33333333333
65.30564218064218,59.17870755370754,41.96959459459461,52566.66666666667
65.13326356183501,59.01398337112622,41.72265829408686,52600.0
65.74387898619364,59.87700565458251,42.515743850282725,52633.33333333334
65.8488188524355,59.89646660351905,42.56987858434513,52666.66666666666
65.8632279916186,59.87921582134964,42.577513705904295,52700.0
65.81219323172307,59.85826229225868,42.50744854903987,52733.33333333334
65.48155194281102,59.42171105730428,42.087714746915715,52766.66666666666
65.43153599533663,59.340950160303116,41.84593412999126,52800.0
65.7130543301602,59.2216449965173,42.17358370095194,52833.33333333334
65.10361784334387,58.92307692307693,41.463645943098,52866.66666666666
65.08769464933849,58.896499238965,41.461977520196704,52900.0
65.45561060915185,59.35377440979306,41.90769454969397,52933.33333333333
65.37470977478522,59.32023450197353,41.795507313675415,52966.66666666667
65.02264645875836,58.887030020402214,41.35342465753425,53000.0
65.37093684699327,59.31828999303461,41.78369514743441,53033.33333333333
65.53758416531228,59.23148363129789,41.9721383793824,53066.66666666667
65.55023798467612,59.23380543301602,41.98711400046436,53100.0
65.4047480845136,59.31097631762248,41.749448572091936,53133.33333333334
65.43748548873926,59.26105758068261,41.85723821685628,53166.66666666666
65.87060478199719,59.889922213611186,42.39516059588392,53200.0
65.76767008173132,59.67057096811328,42.19195349372626,53233.33333333334
65.37087880195031,59.28801950313444,41.78784536800557,53266.66666666666
65.37952751335037,59.27591711167866,41.823949384722546,53300.0
66.00502498296616,59.87230297524415,42.82685101067454,53333.33333333334
66.25152027027028,60.333108108108114,43.06936936936936,53366.66666666666
66.06540994776289,59.8423518055871,42.83519759255053,53400.0
65.99464215216288,60.08456939822909,42.81862275111387,53433.33333333333
65.51750484661876,59.51188847074923,42.129176644999426,53466.66666666667
65.52309271296613,59.51625042764283,42.15318166267533,53500.0
65.49971490477819,59.48372106283499,42.15030220093511,53533.33333333333
65.50273691412931,59.56996236743072,42.15127152468924,53566.66666666667
65.98501968113726,60.292810013309534,42.75564239798374,53600.0
66.14283270612385,60.05014824951535,42.84242787090889,53633.33333333334
65.5151619970022,59.48803758791653,41.99518621007725,53666.66666666666
65.51663207655943,59.47864060878589,42.023261847111726,53700.0
65.53041046927245,59.51455667012568,41.9935143548945,53733.33333333334
65.4512758689974,59.43856023422028,41.90108786130486,53766.66666666666
65.83819857056747,59.32486581130343,42.31367146014525,53800.0
65.48692557191653,59.368437670426815,41.96081977094635,53833.33333333334
65.52929188553058,59.37412095639944,42.04024225724045,53866.66666666666
65.58350628386948,59.40343595065146,42.09290326300012,53900.0
65.52161881701835,59.42969560705638,42.001297129021104,53933.33333333333
65.5327937082006,59.36261086713165,41.98375383908838,53966.66666666667
65.47811360831253,59.35689887769454,42.0115961996613,54000.0
65.85879372669571,59.72359320297157,42.427432897845335,54033.33333333333
66.28434684684684,60.36928490990991,43.02632319819821,54066.66666666667
66.32390026009273,60.44128123939839,43.10256700214859,54100.0
66.44929617117117,60.34192004504504,43.26934121621622,54133.33333333334
66.70448961358052,60.88091914228279,43.48961358052267,54166.66666666666
66.87790373017646,60.752010274737536,43.71445722582086,54200.0
66.18018707482993,60.22151360544218,42.869982993197276,54233.33333333334
66.3573230907256,60.317932039923754,43.15142424582258,54266.66666666666
66.34655713805091,60.31972636536952,43.15319053493327,54300.0
65.82930743243243,59.821649774774784,42.4902027027027,54333.33333333334
65.76864416283503,59.79435348211282,42.449001906470784,54366.66666666666
66.18557250196254,60.30839968599305,42.91233038017271,54400.0
65.87806739794189,59.931612574918006,42.54155829469637,54433.33333333333
65.7959740990991,59.893552927927935,42.48212274774775,54466.66666666667
65.80244932432433,59.89619932432433,42.46582207207207,54500.0
66.3281092295615,60.2733542671302,43.17315240551755,54533.33333333333
66.16852641022766,60.37501401816754,42.94816081641808,54566.66666666667
66.18024559829539,60.32603454076483,43.030727823258935,54600.0
65.76362612612614,59.874831081081076,42.47908220720721,54633.33333333334
65.7990990990991,59.866722972972966,42.564217342342346,54666.66666666666
65.81393581081082,59.85025337837838,42.581587837837844,54700.0
65.73186936936938,59.84363738738739,42.50748873873873,54733.33333333334
66.67463646532438,60.437220357941825,43.65413870246085,54766.66666666666
66.18635751934508,60.20973982281036,43.011607042727384,54800.0
65.82460585585585,59.753547297297295,42.632798423423424,54833.33333333334
66.37994966442953,60.45383109619687,43.30324384787472,54866.66666666666
66.40192953020134,60.4466163310962,43.299272930648776,54900.0
65.82007088549706,59.727862573600866,42.58834962556451,54933.33333333333
65.88268894055513,59.84738367921008,42.607910674818456,54966.66666666667
66.0152632481564,59.792288343909,42.68941862459268,55000.0
65.98327902589607,59.86829017321214,42.5113473961013,55033.33333333333
66.13319613559709,59.765334705310686,42.741896758703476,55066.66666666667
66.1420854055908,59.77625335848625,42.75853198422226,55100.0
65.99598151496886,59.88699446023135,42.603605155142226,55133.33333333334
66.00020092425157,59.91874049197739,42.605757914980344,55166.66666666666
65.98501679152673,59.91848216079681,42.59106174115216,55200.0
66.31394685825066,60.01408370395712,43.1666096476223,55233.33333333334
66.36168355855855,60.32885698198199,43.17204391891893,55266.66666666666
66.38541666666667,60.3263231981982,43.16157094594595,55300.0
66.37945267443175,60.40659278525387,43.24378039126993,55333.33333333334
66.65162050016822,60.864836828529775,43.498037456543685,55366.66666666666
66.28172860360361,60.36782094594594,43.07195945945946,55400.0
66.19211711711712,60.37201576576578,43.072635135135144,55433.33333333333
66.38530405405406,60.30453265765765,43.36365427927928,55466.66666666667
66.40152027027027,60.29631193693694,43.39617117117117,55500.0
66.24228603603603,60.39107545045045,43.16368243243243,55533.33333333333
66.20138499495346,60.306437142536716,43.10393069417966,55566.66666666667
66.18645833333333,60.35394144144144,43.04842342342342,55600.0
66.25168918918922,60.3541385135135,43.045664414414425,55633.33333333334
66.18096846846845,60.40470157657658,42.98693693693694,55666.66666666666
66.18707770270271,60.41120495495496,42.97148085585586,55700.0
66.45637546259952,60.25050465403162,43.33853874621509,55733.33333333334
66.22255067567568,60.37835022522522,43.08589527027027,55766.66666666666
66.65314590566517,60.6725943489429,43.352160781324976,55800.0
66.19175703754306,60.29351322118806,42.80938149318305,55833.33333333334
66.4276321407224,60.24484103264737,43.23835140750861,55866.66666666666
66.40498866213153,60.17517006802722,43.18727324263039,55900.0
65.77262000690688,59.709825025900784,42.379532634971795,55933.33333333333
65.82404742719005,59.69955105329804,42.27926787153218,55966.66666666667
65.79558535743064,59.6848451709451,42.28349833083919,56000.0
65.97970616818154,59.85965814897386,42.52055107757389,56033.33333333333
66.29872199925995,60.329661571741674,42.920160532832384,56066.66666666667
65.79489467019685,59.70127777138253,42.26096465983654,56100.0
65.99394043331618,59.788801234779605,42.7910592808552,56133.33333333334
65.87663636883325,59.84928257017093,42.464843080089175,56166.66666666666
66.00097181729835,59.81746984508089,42.681101011833306,56200.0
65.85737152003658,59.7919739324301,42.39049905676556,56233.33333333334
66.30099906071216,60.258930350382826,43.012011499160344,56266.66666666666
66.3037884609911,60.25113141490907,43.03105342555433,56300.0
66.31739864864865,60.43229166666666,43.03682432432433,56333.33333333334
66.47210022522523,60.3057713963964,43.30259009009009,56366.66666666666
66.29831081081082,60.32080518018018,43.136655405405406,56400.0
65.91425421237136,59.941507406988585,42.6813015944815,56433.33333333332
65.41364562702718,59.39274950486524,42.15738109589827,56466.66666666668
65.35870719595857,59.41938631992882,42.09845288326301,56500.0
65.56363325350667,59.58156574295815,42.31337666780704,56533.33333333332
65.41700393237464,59.41063176325383,42.05490972760412,56566.66666666668
65.88835534213685,59.79428914422912,42.687303492825706,56600.0
65.42638996526881,59.43540285312437,42.046815350612825,56633.33333333334
65.65683088151442,59.58244953814575,42.346818337324656,56666.66666666666
65.71852548751282,59.556163758695405,42.35482951305736,56700.0
65.8548716784011,59.96138996138996,42.62701567113332,56733.33333333334
65.50022807617744,59.54159539286121,42.1938362413046,56766.66666666666
65.44269586041736,59.548808301972855,42.14756528680578,56800.0
65.45419693301051,59.409143318344285,42.07258157500289,56833.33333333334
65.40856681655713,59.42568891963565,42.016516776202,56866.66666666666
65.33562961049398,59.378082034501574,41.90329802807199,56900.0
66.09533272768567,59.85035771065183,42.89157960481489,56933.33333333332
65.84290859200823,59.79031612645058,42.50311553192706,56966.66666666668
65.5588277505095,59.338212922299725,42.066534630729926,57000.0
65.45919802520164,59.3739774390769,41.92580154424639,57033.33333333332
65.54121987778163,59.457108267035636,42.07050616856913,57066.66666666668
65.49094405694767,59.41304285427251,41.99876575102615,57100.0
65.50899342787963,59.4729620661824,41.97252968984204,57133.33333333334
65.79323763403667,59.413784157730895,42.36832699181368,57166.66666666666
65.52384144564267,59.33788982803847,41.90813174001749,57200.0
65.42526700719759,59.31422684002786,41.91673438588344,57233.33333333334
65.86121874910302,59.9423634432676,42.481988576021116,57266.66666666666
65.86615574499842,59.92118028646058,42.47785527713195,57300.0
65.85451323386498,59.82355799462642,42.48273595152347,57333.33333333334
66.12066326530612,60.22423469387756,42.7702097505669,57366.66666666666
66.57778152583347,60.65623770169225,43.20706133693147,57400.0
66.30813626126127,60.35740427927928,42.955574324324324,57433.33333333332
66.77424646869092,60.65273606940274,43.59876543209877,57466.66666666668
66.79991102213324,60.6467578689801,43.651095539984425,57500.0
66.22204777391501,60.29536279017606,42.99585062240664,57533.33333333332
65.80965653153153,59.84650900900901,42.53704954954953,57566.66666666668
65.71163863034754,59.73765405743888,42.37787834799192,57600.0
66.21524728034674,59.7240448922185,42.976090014064695,57633.33333333334
65.75900771267412,59.5829400253252,42.35423621503396,57666.66666666666
65.78530142766314,59.62412577307671,42.458152707935966,57700.0
65.80666513180616,59.568521929319665,42.49245999769771,57733.33333333334
65.38640585094033,59.18771766891108,42.03038657998607,57766.66666666666
65.90584805350711,59.711970502486714,42.544989424341175,57800.0
65.36330269926594,59.13554129819085,41.855846482862255,57833.33333333334
