Time[ms],HR[bpm]
833,116.129
867,116.129
900,116.129
933,116.129
967,115.2709
1000,115.2709
1033,118.6813
1067,118.6813
1100,118.6813
1133,118.6813
1167,118.6813
1200,118.6813
1233,118.6813
1267,118.6813
1300,118.6813
1333,118.0328
1367,118.0328
1400,118.0328
1433,118.0328
1467,118.1818
1500,118.1818
1533,118.1818
1567,118.1818
1600,118.1818
1633,118.1818
1667,118.1818
1700,118.6813
1733,118.6813
1767,118.6813
1800,118.6813
1833,118.6813
1867,118.6813
1900,118.6813
1933,118.6813
1967,118.6813
2000,118.0328
2033,108.1967
2067,108.1967
2100,108.1967
2133,108.7912
2167,108.7912
2200,108.7912
2233,105.2632
2267,105.2632
2300,105.2632
2333,105.2632
2367,105.8824
2400,95.29412
2433,84.70588000000002
2467,81.40704000000002
2500,72.36180999999998
2533,72.36180999999998
2567,72.36180999999998
2600,72.36180999999998
2633,72.36180999999998
2667,73.68421
2700,73.68421
2733,73.68421
2767,73.68421
2800,73.68421
2833,73.25581
2867,73.25581
2900,73.25581
2933,73.25581
2967,73.25581
3000,73.25581
3033,73.25581
3067,73.25581
3100,72.83237
3133,72.83237
3167,72.83237
3200,72.83237
3233,72.83237
3267,73.09644
3300,73.09644
3333,73.09644
3367,73.09644
3400,73.46939
3433,73.46939
3467,73.46939
3500,73.46939
3533,72.4138
3567,72.4138
3600,72.4138
3633,72.4138
3667,72.4138
3700,72.4138
3733,72.4138
3767,72.4138
3800,72.4138
3833,72.4138
3867,72.4138
3900,72.4138
3933,73.84615
3967,73.84615
4000,73.84615
4033,73.09644
4067,73.09644
4100,73.09644
4133,72.72726999999998
4167,72.72726999999998
4200,72.72726999999998
4233,72.83237
4267,72.83237
4300,72.4138
4333,72.4138
4367,72.4138
4400,72.4138
4433,72.4138
4467,72.4138
4500,76.59574
4533,76.59574
4567,76.59574
4600,76.59574
4633,76.59574
4667,86.17021
4700,86.17021
4733,86.17021
4767,86.17021
4800,86.17021
4833,86.17021
4867,86.17021
4900,86.17021
4933,86.17021
4967,89.10891
5000,89.10891
5033,89.10891
5067,88.04348
5100,88.04348
5133,88.04348
5167,88.04348
5200,88.04348
5233,88.04348
5267,88.04348
5300,88.04348
5333,88.04348
5367,88.04348
5400,88.04348
5433,88.04348
5467,88.04348
5500,88.04348
5533,88.04348
5567,88.04348
5600,88.04348
5633,88.04348
5667,85.71429
5700,85.71429
5733,85.71429
5767,76.19048000000002
5800,76.19048000000002
5833,76.19048000000002
5867,76.19048000000002
5900,76.19048000000002
5933,76.59574
5967,76.59574
6000,76.59574
6033,76.59574
6067,76.59574
6100,76.59574
6133,67.02128
6167,67.02128
6200,67.02128
6233,75.0
6267,75.0
6300,75.0
6333,75.0
6367,75.0
6400,75.0
6433,75.0
6467,75.0
6500,75.0
6533,74.11765
6567,74.11765
6600,74.55621
6633,74.55621
6667,74.55621
6700,75.0
6733,75.0
6767,75.0
6800,75.4491
6833,75.4491
6867,75.4491
6900,79.55801
6933,89.50276
6967,89.50276
7000,89.50276
7033,89.50276
7067,89.50276
7100,89.50276
7133,89.50276
7167,89.50276
7200,89.50276
7233,89.50276
7267,89.50276
7300,89.50276
7333,89.50276
7367,92.30769
7400,92.30769
7433,92.30769
7467,92.30769
7500,92.30769
7533,92.30769
7567,92.30769
7600,92.30769
7633,92.30769
7667,92.30769
7700,92.04546
7733,92.04546
7767,92.04546
7800,92.04546
7833,92.04546
7867,94.24084
7900,94.24084
7933,94.24084
7967,93.75
8000,103.125
8033,103.125
8067,103.125
8100,103.125
8133,103.125
8167,103.125
8200,103.125
8233,103.125
8267,103.125
8300,111.1111
8333,111.1111
8367,111.1111
8400,111.236
8433,111.236
8467,111.236
8500,111.236
8533,111.236
8567,111.236
8600,111.236
8633,111.236
8667,111.236
8700,111.236
8733,111.236
8767,111.236
8800,111.236
8833,111.236
8867,111.236
8900,111.236
8933,113.089
8967,113.089
9000,113.089
9033,113.089
9067,113.089
9100,113.089
9133,113.089
9167,113.089
9200,113.089
9233,113.089
9267,113.089
9300,117.3913
9333,117.3913
9367,117.3913
9400,117.3913
9433,117.3913
9467,117.3913
9500,117.3913
9533,117.3913
9567,117.3913
9600,117.3913
9633,117.3913
9667,117.3913
9700,117.3913
9733,118.7817
9767,118.7817
9800,118.7817
9833,118.7817
9867,118.7817
9900,118.7817
9933,118.7817
9967,118.7817
10000,125.5814
10033,125.5814
10067,125.5814
10100,125.5814
10133,125.5814
10167,125.5814
10200,125.5814
10233,125.5814
10267,124.4681
10300,124.4681
10333,124.4681
10367,124.4681
10400,124.4681
10433,124.4681
10467,124.4681
10500,124.4681
10533,124.4681
10567,124.4681
10600,124.4681
10633,124.4681
10667,124.4681
10700,124.4681
10733,124.4681
10767,124.1379
10800,124.1379
10833,124.4681
10867,124.4681
10900,124.4681
10933,124.4681
10967,124.4681
11000,124.4681
11033,124.4681
11067,124.4681
11100,124.4681
11133,124.4681
11167,124.4681
11200,124.4681
11233,124.4681
11267,124.1379
11300,124.1379
11333,123.8095
11367,123.8095
11400,123.8095
11433,123.8095
11467,123.8095
11500,123.8095
11533,123.8095
11567,123.8095
11600,123.8095
11633,123.8095
11667,123.8095
11700,123.8095
11733,124.1379
11767,124.1379
11800,123.1579
11833,123.1579
11867,123.1579
11900,123.1579
11933,123.1579
11967,123.1579
12000,123.1579
12033,123.1579
12067,123.1579
12100,123.1579
12133,123.1579
12167,123.1579
12200,123.5294
12233,123.8095
12267,123.8095
12300,123.8095
12333,123.8095
12367,123.8095
12400,123.8095
12433,123.8095
12467,123.8095
12500,123.8095
12533,123.8095
12567,123.8095
12600,123.8095
12633,123.8095
12667,124.1379
12700,124.1379
12733,123.8095
12767,123.8095
12800,123.8095
12833,123.8095
12867,123.8095
12900,123.8095
12933,124.4681
12967,124.4681
13000,124.4681
13033,124.4681
13067,124.4681
13100,124.4681
13133,124.7525
13167,124.7525
13200,124.7525
13233,125.1337
13267,125.1337
13300,125.1337
13333,125.1337
13367,125.1337
13400,125.1337
13433,125.1337
13467,125.1337
13500,125.1337
13533,125.1337
13567,125.1337
13600,125.3731
13633,125.3731
13667,125.3731
13700,125.3731
13733,125.1337
13767,125.1337
13800,125.1337
13833,125.1337
13867,125.1337
13900,125.1337
13933,125.1337
13967,125.1337
14000,125.1337
14033,125.1337
14067,125.1337
14100,124.7525
14133,124.7525
14167,124.7525
14200,125.8064
14233,125.8064
14267,125.8064
14300,125.8064
14333,125.8064
14367,125.8064
14400,125.8064
14433,125.8064
14467,125.8064
14500,125.8064
14533,125.8064
14567,125.8064
14600,125.3731
14633,125.3731
14667,125.3731
14700,125.3731
14733,125.1337
14767,125.1337
14800,125.1337
14833,125.1337
14867,125.1337
14900,125.1337
14933,125.1337
14967,125.1337
15000,125.1337
15033,125.1337
15067,125.1337
15100,126.6332
15133,126.6332
15167,126.6332
15200,126.4865
15233,126.4865
15267,126.4865
15300,126.4865
15333,126.4865
15367,126.4865
15400,127.9188
15433,127.9188
15467,127.9188
15500,127.9188
15533,127.9188
15567,127.9188
15600,127.9188
15633,127.9188
15667,127.1739
15700,127.1739
15733,127.1739
15767,127.1739
15800,127.1739
15833,126.4865
15867,126.4865
15900,126.4865
15933,126.0
15967,126.0
16000,126.0
16033,126.0
16067,126.0
16100,125.8064
16133,125.8064
16167,125.8064
16200,125.8064
16233,125.8064
16267,125.8064
16300,125.8064
16333,125.8064
16367,125.8064
16400,125.8064
16433,125.8064
16467,125.3731
16500,125.3731
16533,125.3731
16567,126.4865
16600,126.4865
16633,126.4865
16667,126.4865
16700,126.4865
16733,126.4865
16767,125.8064
16800,125.8064
16833,125.8064
16867,125.8064
16900,125.8064
16933,126.0
16967,126.0
17000,126.0
17033,126.0
17067,126.0
17100,126.4865
17133,126.4865
17167,126.4865
17200,126.4865
17233,126.4865
17267,126.4865
17300,126.4865
17333,126.4865
17367,126.4865
17400,126.4865
17433,126.0
17467,126.0
17500,126.0
17533,126.0
17567,126.0
17600,126.4865
17633,126.4865
17667,126.4865
17700,126.4865
17733,126.4865
17767,126.4865
17800,126.4865
17833,126.4865
17867,126.4865
17900,126.4865
17933,126.0
17967,126.0
18000,126.0
18033,126.0
18067,126.0
18100,125.8064
18133,125.8064
18167,125.8064
18200,125.8064
18233,125.8064
18267,125.8064
18300,125.8064
18333,125.8064
18367,125.8064
18400,125.8064
18433,125.8064
18467,125.8064
18500,126.0
18533,126.0
18567,125.8064
18600,125.8064
18633,125.8064
18667,125.8064
18700,125.8064
18733,125.8064
18767,125.8064
18800,125.8064
18833,126.6332
18867,126.6332
18900,126.6332
18933,126.6332
18967,126.6332
19000,126.6332
19033,126.4865
19067,126.4865
19100,126.4865
19133,126.4865
19167,126.4865
19200,126.4865
19233,126.4865
19267,126.4865
19300,126.4865
19333,126.0
19367,126.0
19400,126.0
19433,126.0
19467,126.0
19500,125.8064
19533,125.8064
19567,125.8064
19600,125.8064
19633,125.8064
19667,125.8064
19700,125.8064
19733,125.8064
19767,125.8064
19800,126.0
19833,126.0
19867,126.0
19900,126.0
19933,126.0
19967,125.8064
20000,125.8064
20033,125.8064
20067,125.8064
20100,125.8064
20133,125.8064
20167,125.8064
20200,125.8064
20233,125.8064
20267,126.0
20300,126.0
20333,126.0
20367,126.0
20400,126.0
20433,126.4865
20467,126.4865
20500,126.4865
20533,126.4865
20567,126.4865
20600,126.4865
20633,126.4865
20667,126.4865
20700,126.4865
20733,126.6332
20767,126.6332
20800,126.6332
20833,126.6332
20867,126.6332
20900,126.6332
20933,127.1739
20967,127.1739
21000,127.1739
21033,127.1739
21067,127.1739
21100,127.1739
21133,127.1739
21167,127.9188
21200,127.9188
21233,127.9188
21267,127.9188
21300,127.9188
21333,127.9188
21367,127.9188
21400,127.9188
21433,126.4865
21467,126.4865
21500,126.4865
21533,126.4865
21567,125.8064
21600,125.8064
21633,125.8064
21667,125.8064
21700,125.8064
21733,125.8064
21767,125.8064
21800,125.8064
21833,121.2435
21867,121.2435
21900,121.2435
21933,121.2435
21967,121.2435
22000,121.2435
22033,121.2435
22067,121.2435
22100,121.2435
22133,121.2435
22167,121.2435
22200,121.2435
22233,122.0339
22267,122.0339
22300,122.0339
22333,121.875
22367,121.875
22400,121.875
22433,121.875
22467,121.875
22500,121.875
22533,121.875
22567,121.875
22600,121.875
22633,121.875
22667,121.875
22700,121.875
22733,121.875
22767,122.0339
22800,122.5131
22833,122.5131
22867,122.5131
22900,122.5131
22933,122.5131
22967,122.5131
23000,122.5131
23033,122.5131
23067,122.5131
23100,122.5131
23133,122.5131
23167,122.5131
23200,122.5131
23233,123.5294
23267,123.8095
23300,123.8095
23333,123.8095
23367,123.8095
23400,123.8095
23433,123.8095
23467,123.8095
23500,123.8095
23533,123.8095
23567,123.8095
23600,123.8095
23633,123.8095
23667,114.2857
23700,114.2857
23733,114.7059
23767,114.2857
23800,114.2857
23833,114.2857
23867,114.2857
23900,114.2857
23933,114.2857
23967,114.2857
24000,114.2857
24033,114.2857
24067,114.2857
24100,114.2857
24133,114.2857
24167,114.2857
24200,115.2709
24233,115.2709
24267,114.8936
24300,114.8936
24333,114.8936
24367,114.8936
24400,114.8936
24433,114.8936
24467,114.8936
24500,114.8936
24533,114.8936
24567,114.8936
24600,114.8936
24633,116.4179
24667,116.4179
24700,116.4179
24733,116.4179
24767,115.508
24800,115.508
24833,115.508
24867,115.508
24900,115.508
24933,115.508
24967,115.508
25000,115.508
25033,115.508
25067,115.508
25100,115.508
25133,115.508
25167,115.508
25200,115.508
25233,113.7931
25267,113.7931
25300,113.7931
25333,113.7931
25367,113.7931
25400,113.7931
25433,113.7931
25467,113.7931
25500,113.7931
25533,109.0909
25567,109.0909
25600,109.0909
25633,109.0909
25667,108.1967
25700,108.1967
25733,108.1967
25767,108.1967
25800,108.1967
25833,108.1967
25867,108.1967
25900,108.1967
25933,108.1967
25967,108.1967
26000,108.1967
26033,108.1967
26067,108.1967
26100,108.1967
26133,108.1967
26167,106.5089
26200,106.5089
26233,104.2105
26267,104.2105
26300,104.2105
26333,104.2105
26367,104.2105
26400,104.2105
26433,104.2105
26467,104.2105
26500,104.2105
26533,104.2105
26567,104.2105
26600,104.2105
26633,102.2727
26667,102.2727
26700,102.2727
26733,104.2105
26767,104.2105
26800,103.6649
26833,103.6649
26867,103.6649
26900,103.6649
26933,103.6649
26967,103.6649
27000,103.6649
27033,103.6649
27067,103.6649
27100,103.6649
27133,103.6649
27167,103.6649
27200,103.6649
27233,103.6649
27267,103.6649
27300,103.6649
27333,103.6649
27367,103.6649
27400,103.6649
27433,103.6649
27467,103.6649
27500,103.6649
27533,103.6649
27567,103.125
27600,103.125
27633,103.125
27667,103.125
27700,103.125
27733,103.125
27767,103.125
27800,103.125
27833,103.125
27867,103.125
27900,103.125
27933,103.125
27967,103.125
28000,114.6497
28033,115.7895
28067,115.1163
28100,115.1163
28133,115.1163
28167,115.1163
28200,115.1163
28233,115.1163
28267,115.1163
28300,115.1163
28333,104.6512
28367,104.6512
28400,104.6512
28433,104.6512
28467,104.6512
28500,107.027
28533,107.027
28567,107.027
28600,107.027
28633,107.027
28667,107.027
28700,107.027
28733,107.027
28767,107.027
28800,107.027
28833,107.027
28867,107.027
28900,107.027
28933,107.027
28967,107.027
29000,108.0
29033,108.0
29067,108.0
29100,108.0
29133,108.0
29167,106.4516
29200,106.4516
29233,106.4516
29267,106.4516
29300,106.4516
29333,106.4516
29367,106.4516
29400,106.4516
29433,106.4516
29467,106.4516
29500,106.4516
29533,106.4516
29567,106.4516
29600,106.4516
29633,104.0462
29667,104.0462
29700,104.0462
29733,104.0462
29767,104.0462
29800,104.0462
29833,104.0462
29867,104.0462
29900,104.0462
29933,104.0462
29967,104.0462
30000,104.0462
30033,104.0462
30067,102.5316
30100,102.5316
30133,102.5316
30167,102.5316
30200,102.5316
30233,102.5316
30267,102.5316
30300,102.5316
30333,102.5316
30367,102.5316
30400,102.5316
30433,102.5316
30467,102.5316
30500,102.5316
30533,102.5316
30567,100.0
30600,100.0
30633,100.0
30667,100.0
30700,100.0
30733,100.0
30767,100.0
30800,101.8868
30833,101.8868
30867,90.0
30900,90.0
30933,90.0
30967,90.0
31000,90.0
31033,86.63101999999998
31067,86.63101999999998
31100,86.63101999999998
31133,86.63101999999998
31167,86.63101999999998
31200,86.63101999999998
31233,86.63101999999998
31267,86.63101999999998
31300,86.63101999999998
31333,89.55224
31367,89.55224
31400,98.50746
31433,107.4627
31467,111.8644
31500,111.8644
31533,111.8644
31567,111.8644
31600,111.8644
31633,111.8644
31667,111.8644
31700,111.8644
31733,111.8644
31767,111.8644
31800,113.089
31833,113.089
31867,113.089
31900,113.089
31933,113.089
31967,113.089
32000,113.089
32033,113.089
32067,113.089
32100,113.089
32133,113.089
32167,113.089
32200,113.089
32233,114.7059
32267,118.0328
32300,118.0328
32333,118.0328
32367,118.0328
32400,118.0328
32433,118.0328
32467,118.0328
32500,118.0328
32533,118.0328
32567,118.0328
32600,118.0328
32633,118.0328
32667,118.0328
32700,118.0328
32733,118.0328
32767,118.0328
32800,118.0328
32833,118.0328
32867,115.8416
32900,115.8416
32933,115.8416
32967,115.508
33000,115.508
33033,115.508
33067,115.508
33100,115.508
33133,115.508
33167,115.508
33200,115.508
33233,115.508
33267,115.508
33300,117.0
33333,117.0
33367,117.0
33400,117.0
33433,117.0
33467,116.129
33500,116.129
33533,116.129
33567,116.129
33600,116.129
33633,116.129
33667,116.129
33700,115.508
33733,115.508
33767,115.508
33800,115.508
33833,115.508
33867,114.8936
33900,114.8936
33933,113.7931
33967,113.7931
34000,113.7931
34033,113.7931
34067,113.7931
34100,113.7931
34133,113.7931
34167,113.7931
34200,113.7931
34233,108.0
34267,108.0
34300,108.0
34333,108.0
34367,108.0
34400,107.027
34433,107.027
34467,107.027
34500,107.027
34533,107.027
34567,107.027
34600,107.027
34633,107.027
34667,107.027
34700,107.027
34733,107.027
34767,107.027
34800,107.027
34833,107.027
34867,104.6512
34900,104.6512
34933,104.6512
34967,104.6512
35000,104.6512
35033,104.6512
35067,104.6512
35100,100.0
35133,104.6512
35167,99.0
35200,99.0
35233,99.0
35267,99.0
35300,99.0
35333,97.29729
35367,97.29729
35400,97.29729
35433,97.29729
35467,97.29729
35500,97.29729
35533,97.29729
35567,97.29729
35600,97.29729
35633,97.29729
35667,97.29729
35700,97.29729
35733,97.29729
35767,97.29729
35800,97.29729
35833,95.29412
35867,95.29412
35900,95.29412
35933,95.29412
35967,95.29412
36000,95.29412
36033,95.29412
36067,95.29412
36100,95.29412
36133,90.45226
36167,90.45226
36200,90.45226
36233,81.0
36267,72.0
36300,72.0
36333,73.25581
36367,73.25581
36400,73.25581
36433,73.25581
36467,73.25581
36500,73.25581
36533,73.25581
36567,73.25581
36600,73.25581
36633,73.25581
36667,73.25581
36700,73.25581
36733,73.25581
36767,73.25581
36800,73.25581
36833,73.25581
36867,73.25581
36900,73.25581
36933,73.25581
36967,73.25581
37000,73.25581
37033,73.25581
37067,73.25581
37100,73.25581
37133,73.25581
37167,71.28713
37200,71.28713
37233,71.28713
37267,66.66666
37300,66.66666
37333,66.66666
37367,66.31579
37400,66.31579
37433,66.31579
37467,66.31579
37500,66.31579
37533,66.31579
37567,66.31579
37600,66.31579
37633,66.31579
37667,66.31579
37700,61.36364
37733,61.36364
37767,61.36364
37800,61.36364
37833,61.36364
37867,61.36364
37900,61.36364
37933,61.36364
37967,61.36364
38000,61.36364
38033,61.36364
38067,61.36364
38100,61.36364
38133,61.36364
38167,60.0
38200,60.0
38233,60.0
38267,60.0
38300,60.0
38333,60.0
38367,60.0
38400,60.0
38433,60.0
38467,59.66851
38500,59.66851
38533,59.66851
38567,59.66851
38600,59.66851
38633,59.66851
38667,59.66851
38700,59.66851
38733,59.66851
38767,59.66851
38800,59.66851
38833,59.66851
38867,59.66851
38900,59.66851
38933,59.66851
38967,59.66851
39000,59.66851
39033,61.64384
39067,61.64384
39100,61.64384
39133,61.64384
39167,61.64384
39200,61.64384
39233,61.64384
39267,61.64384
39300,61.64384
39333,61.64384
39367,61.64384
39400,59.66851
39433,59.34066
39467,62.06896999999999
39500,58.69565
39533,58.69565
39567,58.69565
39600,58.69565
39633,58.69565
39667,58.69565
39700,58.69565
39733,58.69565
39767,58.69565
39800,58.69565
39833,58.69565
39867,58.69565
39900,58.69565
39933,58.69565
39967,58.69565
40000,58.69565
40033,58.69565
40067,58.69565
40100,58.69565
40133,58.69565
40167,58.69565
40200,56.60378000000001
40233,56.60378000000001
40267,56.60378000000001
40300,56.60378000000001
40333,56.60378000000001
40367,56.60378000000001
40400,56.60378000000001
40433,56.60378000000001
40467,56.60378000000001
40500,56.60378000000001
40533,56.60378000000001
40567,56.5445
40600,56.5445
40633,56.5445
40667,56.5445
40700,56.5445
40733,56.5445
40767,56.5445
40800,56.5445
40833,56.5445
40867,56.5445
40900,56.5445
40933,56.5445
40967,56.5445
41000,56.5445
41033,55.55556
41067,55.55556
41100,55.55556
41133,55.55556
41167,55.55556
41200,55.55556
41233,55.55556
41267,55.55556
41300,55.55556
41333,55.55556
41367,55.55556
41400,55.55556
41433,55.55556
41467,55.55556
41500,55.55556
41533,55.55556
41567,56.25
41600,56.25
41633,56.25
41667,56.25
41700,56.25
41733,56.25
41767,56.25
41800,56.25
41833,56.25
41867,56.25
41900,56.25
41933,56.25
41967,56.25
42000,55.21473
42033,55.21473
42067,55.21473
42100,55.21473
42133,55.21473
42167,55.21473
42200,55.21473
42233,55.21473
42267,55.21473
42300,55.21473
42333,55.21473
42367,55.21473
42400,55.21473
42433,55.21473
42467,55.21473
42500,55.21473
42533,55.21473
42567,55.21473
42600,55.21473
42633,55.21473
42667,55.21473
42700,55.21473
42733,55.21473
42767,55.21473
42800,55.21473
42833,55.21473
42867,55.21473
42900,55.21473
42933,55.21473
42967,51.72414000000001
43000,51.72414000000001
43033,51.72414000000001
43067,51.72414000000001
43100,51.72414000000001
43133,51.72414000000001
43167,51.72414000000001
43200,51.72414000000001
43233,51.72414000000001
43267,51.72414000000001
43300,51.72414000000001
43333,51.72414000000001
43367,51.72414000000001
43400,51.72414000000001
43433,51.72414000000001
43467,51.72414000000001
43500,51.72414000000001
43533,51.72414000000001
43567,51.72414000000001
43600,51.72414000000001
43633,51.72414000000001
43667,51.72414000000001
43700,51.72414000000001
43733,51.72414000000001
43767,51.72414000000001
43800,51.72414000000001
43833,51.72414000000001
43867,51.72414000000001
43900,51.72414000000001
43933,51.72414000000001
43967,51.72414000000001
44000,49.65517
44033,49.65517
44067,50.5618
44100,50.5618
44133,50.5618
44167,50.5618
44200,50.5618
44233,50.5618
44267,50.5618
44300,50.5618
44333,50.5618
44367,50.5618
44400,50.5618
44433,50.5618
44467,50.5618
44500,50.5618
44533,50.5618
44567,50.5618
44600,50.5618
44633,50.5618
44667,50.5618
44700,50.5618
44733,50.5618
44767,50.5618
44800,50.5618
44833,50.5618
44867,50.5618
44900,50.5618
44933,50.5618
44967,52.55474
45000,52.55474
45033,52.55474
45067,52.55474
45100,52.55474
45133,52.55474
45167,52.55474
45200,52.55474
45233,52.55474
45267,52.55474
45300,52.55474
45333,52.55474
45367,52.55474
45400,52.55474
45433,52.55474
45467,52.55474
45500,52.55474
45533,52.55474
45567,52.55474
45600,49.18033
45633,49.18033
45667,49.18033
45700,49.18033
45733,49.18033
45767,49.18033
45800,49.18033
45833,49.18033
45867,49.18033
45900,49.18033
45933,49.18033
45967,49.18033
46000,49.18033
46033,49.18033
46067,49.18033
46100,49.18033
46133,49.18033
46167,49.18033
46200,49.18033
46233,49.18033
46267,49.18033
46300,49.18033
46333,47.36842
46367,47.36842
46400,47.36842
46433,47.36842
46467,47.36842
46500,47.36842
46533,47.36842
46567,47.36842
46600,47.36842
46633,47.36842
46667,47.36842
46700,47.36842
46733,47.36842
46767,47.36842
46800,47.36842
46833,47.61905
46867,47.61905
46900,47.61905
46933,47.61905
46967,47.61905
47000,47.61905
47033,47.61905
47067,47.61905
47100,47.61905
47133,47.61905
47167,47.61905
47200,47.61905
47233,47.61905
47267,47.61905
47300,47.61905
47333,47.61905
47367,45.85987
47400,45.85987
47433,45.85987
47467,45.56962
47500,45.56962
47533,45.56962
47567,45.56962
47600,45.56962
47633,45.56962
47667,45.56962
47700,45.56962
47733,45.56962
47767,45.56962
47800,45.56962
47833,45.56962
47867,45.56962
47900,45.56962
47933,45.56962
47967,45.56962
48000,45.56962
48033,45.56962
48067,46.39175
48100,46.39175
48133,46.39175
48167,46.39175
48200,46.39175
48233,46.39175
48267,46.39175
48300,46.39175
48333,46.39175
48367,46.39175
48400,46.39175
48433,47.05882
48467,47.05882
48500,47.05882
48533,47.05882
48567,47.05882
48600,47.05882
48633,47.05882
48667,47.05882
48700,47.05882
48733,47.05882
48767,47.05882
48800,47.05882
48833,47.05882
48867,47.05882
48900,47.05882
48933,47.05882
48967,47.05882
49000,49.72376
49033,49.72376
49067,49.72376
49100,49.72376
49133,49.72376
49167,49.72376
49200,49.72376
49233,49.72376
49267,49.72376
49300,49.72376
49333,49.72376
49367,49.72376
49400,49.72376
49433,49.72376
49467,49.72376
49500,49.72376
49533,49.72376
49567,49.72376
49600,49.72376
49633,49.72376
49667,49.72376
49700,49.72376
49733,49.72376
49767,49.72376
49800,48.64865
49833,48.64865
49867,48.64865
49900,48.64865
49933,48.64865
49967,50.84746
50000,50.84746
50033,50.84746
50067,50.84746
50100,50.84746
50133,50.84746
50167,50.84746
50200,50.84746
50233,50.84746
50267,50.84746
50300,50.84746
50333,50.84746
50367,50.84746
50400,50.84746
50433,50.84746
50467,50.84746
50500,50.84746
50533,50.84746
50567,50.84746
50600,50.84746
50633,50.84746
50667,50.84746
50700,50.84746
50733,50.84746
50767,50.84746
50800,50.84746
50833,50.84746
50867,50.84746
50900,54.961830000000006
50933,54.961830000000006
50967,54.961830000000006
51000,54.961830000000006
51033,54.961830000000006
51067,54.961830000000006
51100,54.961830000000006
51133,54.961830000000006
51167,54.961830000000006
51200,54.961830000000006
51233,54.961830000000006
51267,54.961830000000006
51300,54.961830000000006
51333,54.961830000000006
51367,54.961830000000006
51400,51.72414000000001
51433,51.72414000000001
51467,51.72414000000001
51500,54.961830000000006
51533,54.961830000000006
51567,50.27933
51600,50.27933
51633,50.27933
51667,50.27933
51700,50.27933
51733,50.27933
51767,50.27933
51800,50.27933
51833,50.27933
51867,50.27933
51900,50.27933
51933,50.27933
51967,50.27933
52000,50.27933
52033,50.27933
52067,50.27933
52100,50.27933
52133,50.27933
52167,50.27933
52200,54.54546
52233,54.54546
52267,54.54546
52300,54.54546
52333,54.54546
52367,54.54546
52400,54.54546
52433,55.90062
52467,55.90062
52500,55.90062
52533,55.90062
52567,55.90062
52600,55.90062
52633,55.90062
52667,55.90062
52700,55.90062
52733,55.90062
52767,55.90062
52800,55.90062
52833,55.90062
52867,55.90062
52900,55.90062
52933,55.90062
52967,55.90062
53000,55.90062
53033,55.90062
53067,60.67416
53100,60.67416
53133,60.67416
53167,60.67416
53200,55.90062
53233,55.90062
53267,55.90062
53300,55.90062
53333,55.38462
53367,55.38462
53400,55.38462
53433,55.38462
53467,55.38462
53500,55.38462
53533,55.38462
53567,55.38462
53600,55.38462
53633,55.38462
53667,56.96202
53700,56.96202
53733,56.96202
53767,56.96202
53800,56.96202
53833,56.96202
53867,56.96202
53900,56.96202
53933,56.96202
53967,56.96202
54000,56.96202
54033,56.96202
54067,56.96202
54100,56.96202
54133,56.96202
54167,56.96202
54200,57.32484
54233,57.32484
54267,57.32484
54300,57.75401
54333,57.75401
54367,57.75401
54400,57.75401
54433,57.75401
54467,57.75401
54500,57.75401
54533,57.75401
54567,57.75401
54600,57.75401
54633,57.75401
54667,57.75401
54700,57.75401
54733,57.75401
54767,57.75401
54800,57.75401
54833,57.75401
54867,57.75401
54900,56.60378000000001
54933,56.60378000000001
54967,56.60378000000001
55000,56.60378000000001
55033,56.60378000000001
55067,56.60378000000001
55100,56.60378000000001
55133,56.60378000000001
55167,56.60378000000001
55200,58.06452
55233,58.06452
55267,58.06452
55300,58.06452
55333,58.06452
55367,58.06452
55400,58.06452
55433,58.06452
55467,58.06452
55500,58.06452
55533,58.06452
55567,58.06452
55600,58.06452
55633,58.06452
55667,58.06452
55700,58.06452
55733,58.06452
55767,58.06452
55800,58.06452
55833,57.32484
55867,57.32484
55900,57.32484
55933,62.42775
55967,62.42775
56000,62.42775
56033,62.42775
56067,62.42775
56100,62.42775
56133,62.42775
56167,62.42775
56200,62.42775
56233,62.42775
56267,62.42775
56300,62.42775
56333,62.42775
56367,62.42775
56400,62.42775
56433,62.42775
56467,62.42775
56500,62.42775
56533,62.42775
56567,62.42775
56600,62.42775
56633,62.42775
56667,62.42775
56700,62.37624
56733,62.37624
56767,62.68657
56800,70.58823000000002
56833,71.05264
56867,71.05264
56900,71.52318000000002
56933,71.05264
56967,72.0
57000,72.0
57033,72.0
57067,72.48321999999997
57100,72.48321999999997
57133,72.48321999999997
57167,72.48321999999997
57200,72.48321999999997
57233,72.48321999999997
57267,73.25581
57300,73.25581
57333,83.72093000000002
57367,83.72093000000002
57400,83.72093000000002
57433,83.72093000000002
57467,83.72093000000002
57500,83.72093000000002
57533,83.72093000000002
57567,83.72093000000002
57600,83.72093000000002
57633,83.72093000000002
57667,83.72093000000002
57700,87.56756999999998
57733,87.56756999999998
57767,87.56756999999998
57800,97.29729
57833,97.29729
57867,97.29729
57900,97.29729
57933,107.027
57967,107.027
58000,116.7568
58033,116.7568
58067,116.7568
58100,118.7817
58133,117.0
58167,117.0
58200,117.0
58233,117.0
58267,121.3483
58300,121.3483
58333,121.3483
58367,131.4607
58400,131.4607
58433,131.4607
58467,133.3333
58500,142.8571
58533,142.8571
58567,142.8571
58600,142.8571
58633,142.8571
58667,142.8571
58700,142.8571
58733,142.8571
58767,142.8571
58800,142.8571
58833,142.8571
58867,143.2836
58900,143.2836
58933,143.2836
58967,143.2836
59000,142.1053
59033,142.1053
59067,142.1053
59100,142.1053
59133,142.1053
59167,142.1053
59200,144.0
59233,144.0
59267,144.0
59300,144.0
59333,144.0
59367,144.385
59400,144.385
59433,143.61700000000005
59467,143.61700000000005
59500,143.61700000000005
59533,143.61700000000005
59567,143.61700000000005
59600,143.61700000000005
59633,143.61700000000005
59667,143.61700000000005
59700,143.61700000000005
59733,143.61700000000005
59767,143.1818
59800,143.1818
59833,138.4615
59867,138.4615
59900,138.4615
59933,138.4615
59967,138.4615
60000,138.4615
60033,138.4615
60067,138.4615
60100,138.4615
60133,138.4615
60167,147.3684
60200,147.3684
60233,147.541
60267,147.541
60300,147.541
60333,147.541
60367,147.541
60400,147.541
60433,147.541
60467,147.541
60500,147.541
60533,147.541
60567,147.541
60600,147.541
60633,147.541
60667,147.541
60700,147.541
60733,147.541
60767,147.541
60800,147.541
60833,147.541
60867,147.541
60900,147.541
60933,147.3684
60967,131.25
61000,131.25
61033,131.25
61067,131.25
61100,131.25
61133,131.25
61167,131.25
61200,131.25
61233,131.25
61267,131.25
61300,130.7263
61333,130.7263
61367,129.8969
61400,129.8969
61433,129.8969
61467,129.8969
61500,129.8969
61533,129.8969
61567,129.8969
61600,129.8969
61633,129.8969
61667,129.8969
61700,129.8969
61733,127.8689
61767,127.8689
61800,127.8689
61833,127.8689
61867,127.8689
61900,130.0
61933,130.0
61967,130.0
62000,130.0
62033,130.0
62067,120.0
62100,118.5629
62133,118.5629
62167,118.5629
62200,118.5629
62233,118.5629
62267,118.5629
62300,118.5629
62333,118.5629
62367,108.0
62400,108.0
62433,108.0
62467,108.0
62500,99.0
62533,101.6949
62567,101.6949
62600,101.6949
62633,101.6949
62667,101.6949
62700,91.52542
62733,91.52542
62767,91.52542
62800,91.52542
62833,91.52542
62867,91.52542
62900,91.52542
62933,91.52542
62967,91.52542
63000,91.52542
63033,91.52542
63067,91.52542
63100,91.52542
63133,81.35593
63167,71.18644
63200,61.01695
63233,62.06896999999999
63267,62.06896999999999
63300,64.67066
63333,64.67066
63367,64.67066
63400,64.94846
63433,64.94846
63467,64.94846
63500,64.94846
63533,64.94846
63567,64.94846
63600,75.4491
63633,75.4491
63667,75.0
63700,85.71429
63733,85.71429
63767,85.71429
63800,85.71429
63833,91.52542
63867,90.0
63900,84.21053
63933,83.72093000000002
63967,85.71429
64000,76.19048000000002
64033,76.19048000000002
64067,76.19048000000002
64100,76.19048000000002
64133,76.19048000000002
64167,76.19048000000002
64200,76.19048000000002
64233,76.19048000000002
64267,76.19048000000002
64300,85.71429
64333,95.2381
64367,95.2381
64400,95.2381
64433,95.2381
64467,97.05882
64500,94.24084
64533,94.24084
64567,94.24084
64600,94.24084
64633,94.24084
64667,94.24084
64700,94.24084
64733,94.24084
64767,94.24084
64800,94.24084
64833,94.24084
64867,94.24084
64900,97.05882
64933,93.26425
64967,93.26425
65000,93.26425
65033,93.26425
65067,93.26425
65100,93.26425
65133,93.26425
65167,93.26425
65200,93.26425
65233,93.26425
65267,97.05882
65300,98.36066
65333,98.9011
65367,98.9011
65400,98.9011
65433,98.9011
65467,98.9011
65500,98.9011
65533,98.9011
65567,98.9011
65600,98.9011
65633,98.9011
65667,108.7912
65700,108.7912
65733,108.7912
65767,108.7912
65800,108.7912
65833,108.7912
65867,108.7912
65900,108.7912
65933,108.7912
65967,108.7912
66000,108.7912
66033,110.4295
66067,110.4295
66100,127.1739
66133,127.1739
66167,127.1739
66200,127.1739
66233,127.1739
66267,127.1739
66300,127.1739
66333,125.8064
66367,125.8064
66400,125.8064
66433,125.8064
66467,125.8064
66500,124.7525
66533,124.7525
66567,124.7525
66600,124.4681
66633,125.1337
66667,125.1337
66700,125.1337
66733,125.1337
66767,125.1337
66800,125.1337
66833,125.1337
66867,125.1337
66900,126.0
66933,126.0
66967,126.0
67000,126.0
67033,126.0
67067,125.1337
67100,125.1337
67133,125.1337
67167,125.1337
67200,125.1337
67233,125.1337
67267,125.1337
67300,125.1337
67333,126.0
67367,126.0
67400,126.0
67433,126.0
67467,126.0
67500,125.1337
67533,125.1337
67567,125.1337
67600,125.1337
67633,125.1337
67667,125.1337
67700,125.1337
67733,126.6332
67767,126.6332
67800,126.6332
67833,126.6332
67867,126.6332
67900,126.6332
67933,126.4865
67967,126.4865
68000,126.4865
68033,126.4865
68067,126.4865
68100,126.4865
68133,126.4865
68167,126.4865
68200,126.4865
68233,126.4865
68267,126.4865
68300,126.4865
68333,126.4865
68367,126.4865
68400,125.8064
68433,125.8064
68467,125.8064
68500,125.8064
68533,125.8064
68567,125.8064
68600,125.8064
68633,125.8064
68667,125.8064
68700,125.8064
68733,125.8064
68767,125.8064
68800,125.8064
68833,123.5294
68867,123.8095
68900,123.8095
68933,123.8095
68967,123.8095
69000,123.8095
69033,123.8095
69067,123.8095
69100,123.8095
69133,123.8095
69167,123.8095
69200,123.8095
69233,123.8095
69267,123.8095
69300,124.1379
69333,124.1379
69367,123.1579
69400,123.1579
69433,123.1579
69467,123.1579
69500,123.1579
69533,123.1579
69567,123.1579
69600,123.1579
69633,123.1579
69667,123.1579
69700,123.1579
69733,123.1579
69767,123.5294
69800,123.8095
69833,123.8095
69867,123.8095
69900,123.8095
69933,123.8095
69967,123.8095
70000,123.8095
70033,123.8095
70067,123.8095
70100,123.8095
70133,123.8095
70167,123.8095
70200,123.8095
70233,123.8095
70267,123.8095
70300,124.1379
70333,122.5131
70367,122.5131
70400,122.5131
70433,122.5131
70467,122.5131
70500,122.5131
70533,122.5131
70567,122.5131
70600,122.5131
70633,122.5131
70667,122.5131
70700,122.5131
70733,122.5131
70767,122.5131
70800,122.7273
70833,122.5131
70867,122.5131
70900,122.5131
70933,122.5131
70967,122.5131
71000,122.5131
71033,122.5131
71067,122.5131
71100,122.5131
71133,122.5131
71167,122.5131
71200,122.5131
71233,124.1379
71267,124.1379
71300,123.1579
71333,123.1579
71367,123.1579
71400,123.1579
71433,123.1579
71467,123.1579
71500,123.1579
71533,123.1579
71567,123.1579
71600,123.1579
71633,123.1579
71667,124.1379
71700,124.1379
71733,121.875
71767,121.875
71800,121.875
71833,121.875
71867,121.875
71900,121.875
71933,121.875
71967,121.875
72000,121.875
72033,121.875
72067,121.875
72100,126.3158
72133,126.4865
72167,126.4865
72200,126.4865
72233,126.4865
72267,126.4865
72300,126.4865
72333,126.4865
72367,126.4865
72400,126.4865
72433,126.4865
72467,126.4865
72500,126.4865
72533,126.4865
72567,126.4865
72600,126.4865
72633,126.4865
72667,126.4865
72700,126.4865
72733,126.4865
72767,126.4865
72800,127.0588
72833,113.089
72867,113.089
72900,113.089
72933,113.089
72967,113.089
73000,113.089
73033,113.089
73067,113.089
73100,113.089
73133,113.089
73167,113.089
73200,113.089
73233,112.5
73267,112.5
73300,110.6145
73333,110.6145
73367,110.6145
73400,110.6145
73433,110.6145
73467,110.6145
73500,109.0909
73533,109.0909
73567,108.5427
73600,108.5427
73633,108.5427
73667,108.5427
73700,108.5427
73733,106.4516
73767,106.4516
73800,106.4516
73833,106.4516
73867,105.8824
73900,105.8824
73933,105.8824
73967,105.8824
74000,105.8824
74033,105.8824
74067,105.8824
74100,105.8824
74133,103.4483
74167,103.4483
74200,103.4483
74233,101.5385
74267,101.5385
74300,101.5385
74333,101.5385
74367,101.5385
74400,101.5385
74433,92.30769
74467,92.30769
74500,92.30769
74533,92.30769
74567,91.52542
74600,91.52542
74633,91.52542
74667,91.52542
74700,91.52542
74733,91.52542
74767,91.52542
74800,92.04546
74833,92.04546
74867,92.04546
74900,92.04546
74933,92.04546
74967,92.04546
75000,92.04546
75033,92.04546
75067,92.04546
75100,92.04546
75133,92.04546
75167,92.04546
75200,88.34356
75233,88.34356
75267,88.34356
75300,88.34356
75333,88.34356
75367,88.34356
75400,90.0
75433,90.0
75467,90.0
75500,90.0
75533,90.0
75567,90.0
75600,90.0
75633,86.74699
75667,86.74699
75700,86.74699
75733,86.74699
75767,86.74699
75800,86.74699
75833,86.74699
75867,81.81818
75900,81.40704000000002
75933,81.40704000000002
75967,81.40704000000002
76000,81.40704000000002
76033,81.40704000000002
76067,81.40704000000002
76100,79.55801
76133,79.55801
76167,79.55801
76200,79.55801
76233,79.55801
76267,79.55801
76300,79.55801
76333,79.55801
76367,79.55801
76400,79.55801
76433,79.55801
76467,79.55801
76500,79.55801
76533,79.55801
76567,79.55801
76600,79.55801
76633,79.55801
76667,79.55801
76700,83.23699
76733,83.23699
76767,83.23699
76800,83.23699
76833,83.23699
76867,83.23699
76900,83.23699
76933,83.23699
76967,83.23699
77000,83.23699
77033,83.23699
77067,83.23699
77100,83.23699
77133,83.23699
77167,83.23699
77200,83.23699
77233,83.23699
77267,83.23699
77300,83.23699
77333,83.23699
77367,83.23699
77400,83.23699
77433,83.23699
77467,83.23699
77500,83.23699
77533,83.23699
77567,83.23699
77600,82.35294
77633,84.70588000000002
77667,84.70588000000002
77700,84.70588000000002
77733,84.70588000000002
77767,84.70588000000002
77800,84.70588000000002
77833,84.70588000000002
77867,84.70588000000002
77900,84.70588000000002
77933,84.70588000000002
77967,84.70588000000002
78000,84.70588000000002
78033,84.70588000000002
78067,84.70588000000002
78100,84.70588000000002
78133,84.70588000000002
78167,84.70588000000002
78200,84.70588000000002
78233,82.23351
78267,82.28571
78300,85.13513
78333,85.13513
78367,85.13513
78400,85.13513
78433,85.13513
78467,85.13513
78500,85.13513
78533,85.13513
78567,85.13513
78600,85.13513
78633,85.13513
78667,85.13513
78700,85.13513
78733,85.13513
78767,85.13513
78800,86.30136999999998
78833,86.30136999999998
78867,86.30136999999998
78900,86.30136999999998
78933,86.30136999999998
78967,86.30136999999998
79000,85.71429
79033,85.71429
79067,81.29032
79100,81.29032
79133,81.29032
79167,81.29032
79200,81.29032
79233,81.29032
79267,74.6114
79300,74.6114
79333,74.6114
79367,74.6114
79400,74.6114
79433,74.6114
79467,74.6114
79500,74.6114
79533,74.6114
79567,74.6114
79600,74.6114
79633,74.6114
79667,73.25581
79700,73.25581
79733,73.25581
79767,73.25581
79800,73.25581
79833,73.25581
79867,73.25581
79900,73.25581
79933,73.25581
79967,73.25581
80000,73.25581
80033,73.25581
80067,73.25581
80100,73.25581
80133,73.25581
80167,73.25581
80200,72.0
80233,72.0
80267,72.0
80300,72.0
80333,72.0
80367,70.39106
80400,70.39106
80433,70.39106
80467,70.39106
80500,70.39106
80533,70.39106
80567,70.39106
80600,70.39106
80633,70.39106
80667,70.39106
80700,70.39106
80733,70.39106
80767,70.39106
80800,70.39106
80833,70.39106
80867,70.39106
80900,70.39106
80933,60.33519
80967,62.37624
81000,62.37624
81033,71.28713
81067,68.10811
81100,68.10811
81133,68.10811
81167,68.10811
81200,68.10811
81233,58.37838000000001
81267,58.37838000000001
81300,58.37838000000001
81333,58.06452
81367,58.06452
81400,58.06452
81433,58.06452
81467,58.06452
81500,58.06452
81533,58.06452
81567,58.06452
81600,58.06452
81633,58.82353000000001
81667,58.82353000000001
81700,58.82353000000001
81733,61.71429000000001
81767,61.71429000000001
81800,61.71429000000001
81833,61.71429000000001
81867,61.71429000000001
81900,61.71429000000001
81933,61.71429000000001
81967,72.0
82000,72.0
82033,72.0
82067,72.0
82100,72.0
82133,72.0
82167,72.0
82200,72.0
82233,72.0
82267,72.0
82300,72.0
82333,72.0
82367,72.0
82400,73.84615
82433,73.84615
82467,73.84615
82500,73.84615
82533,73.84615
82567,73.84615
82600,73.84615
82633,73.84615
82667,73.84615
82700,73.84615
82733,71.59091
82767,71.59091
82800,71.59091
82833,71.59091
82867,71.59091
82900,71.59091
82933,71.59091
82967,71.59091
83000,71.59091
83033,73.84615
83067,73.84615
83100,73.84615
83133,73.84615
83167,73.84615
83200,73.84615
83233,73.84615
83267,73.84615
83300,73.84615
83333,73.84615
83367,70.0
83400,70.0
83433,70.0
83467,70.0
83500,70.0
83533,70.0
83567,70.0
83600,70.0
83633,70.0
83667,70.0
83700,70.0
83733,70.0
83767,70.0
83800,70.0
83833,70.0
83867,71.52318000000002
83900,71.52318000000002
83933,70.78650999999998
83967,70.78650999999998
84000,70.78650999999998
84033,70.78650999999998
84067,70.78650999999998
84100,70.78650999999998
84133,70.78650999999998
84167,70.78650999999998
84200,70.78650999999998
84233,70.78650999999998
84267,70.78650999999998
84300,70.78650999999998
84333,70.78650999999998
84367,70.78650999999998
84400,70.78650999999998
84433,70.78650999999998
84467,70.78650999999998
84500,70.78650999999998
84533,70.78650999999998
84567,70.78650999999998
84600,70.78650999999998
84633,72.36180999999998
84667,72.36180999999998
84700,72.36180999999998
84733,72.36180999999998
84767,72.36180999999998
84800,72.36180999999998
84833,78.26087
84867,78.26087
84900,78.26087
84933,78.26087
84967,78.26087
85000,78.26087
85033,78.26087
85067,78.26087
85100,78.26087
85133,77.30060999999998
85167,77.30060999999998
85200,77.30060999999998
85233,77.30060999999998
85267,77.30060999999998
85300,77.30060999999998
85333,77.30060999999998
85367,77.30060999999998
85400,77.30060999999998
85433,77.30060999999998
85467,77.41936
85500,77.41936
85533,77.41936
85567,77.41936
85600,77.00535
85633,78.26087
85667,78.26087
85700,74.6114
85733,74.6114
85767,74.6114
85800,75.0
85833,75.0
85867,84.375
85900,84.375
85933,84.375
85967,84.375
86000,84.375
86033,84.375
86067,84.375
86100,91.52542
86133,91.52542
86167,91.52542
86200,91.52542
86233,91.52542
86267,91.52542
86300,91.52542
86333,101.6949
86367,101.6949
86400,101.6949
86433,101.6949
86467,101.6949
86500,101.6949
86533,101.6949
86567,101.6949
86600,101.6949
86633,103.6649
86667,103.6649
86700,103.6649
86733,103.6649
86767,103.6649
86800,103.6649
86833,103.6649
86867,103.6649
86900,103.6649
86933,103.6649
86967,106.4039
87000,106.4039
87033,110.0
87067,110.0
87100,110.0
87133,110.0
87167,110.0
87200,110.0
87233,110.0
87267,110.0
87300,110.0
87333,110.0
87367,112.5
87400,111.9171
87433,111.9171
87467,111.9171
87500,111.9171
87533,111.9171
87567,111.9171
87600,111.9171
87633,111.9171
87667,111.9171
87700,115.2709
87733,115.2709
87767,119.337
87800,119.337
87833,119.337
87867,119.337
87900,119.337
87933,119.337
87967,119.337
88000,119.337
88033,119.337
88067,121.875
88100,121.875
88133,121.875
88167,121.875
88200,131.25
88233,131.25
88267,131.25
88300,131.25
88333,131.25
88367,131.25
88400,131.25
88433,131.25
88467,131.25
88500,137.7049
88533,137.7049
88567,137.7049
88600,139.2265
88633,139.2265
88667,139.2265
88700,139.2265
88733,139.2265
88767,129.2818
88800,129.2818
88833,129.2818
88867,129.2818
88900,129.2818
88933,129.2818
88967,129.2818
89000,129.2818
89033,109.3923
89067,109.3923
89100,109.3923
89133,109.3923
89167,106.4039
89200,106.4039
89233,110.0
89267,110.0
89300,110.0
89333,110.0
89367,110.0
89400,100.0
89433,100.0
89467,100.0
89500,100.0
89533,100.0
89567,100.0
89600,99.44752
89633,99.44752
89667,99.44752
89700,99.44752
89733,99.44752
89767,99.44752
89800,98.9011
89833,98.9011
89867,98.9011
89900,98.9011
89933,98.9011
89967,98.9011
90000,103.8462
90033,103.8462
90067,103.8462
90100,103.8462
90133,98.36066
90167,103.8462
90200,97.29729
90233,97.29729
90267,97.29729
90300,97.29729
90333,97.29729
90367,97.29729
90400,97.29729
90433,97.29729
90467,97.29729
90500,97.29729
90533,97.29729
90567,97.29729
90600,97.29729
90633,97.29729
90667,97.29729
90700,97.29729
90733,97.29729
90767,97.29729
90800,97.29729
90833,97.29729
90867,94.73684
90900,94.73684
90933,93.26425
90967,93.26425
91000,93.26425
91033,93.26425
91067,93.26425
91100,93.26425
91133,93.75
91167,93.75
91200,93.75
91233,93.75
91267,93.75
91300,93.75
91333,93.75
91367,88.52459
91400,88.52459
91433,88.52459
91467,88.52459
91500,88.52459
91533,88.52459
91567,88.52459
91600,88.52459
91633,88.52459
91667,84.70588000000002
91700,83.93782
91733,83.93782
91767,83.93782
91800,83.93782
91833,83.93782
91867,83.93782
91900,83.93782
91933,83.93782
91967,83.93782
92000,83.93782
92033,83.93782
92067,83.93782
92100,79.55801
92133,79.55801
92167,79.55801
92200,79.55801
92233,79.55801
92267,79.55801
92300,79.12088
92333,79.12088
92367,79.12088
92400,79.12088
92433,79.12088
92467,75.90361999999998
92500,75.90361999999998
92533,75.90361999999998
92567,75.90361999999998
92600,75.90361999999998
92633,75.90361999999998
92667,75.90361999999998
92700,75.90361999999998
92733,75.90361999999998
92767,75.90361999999998
92800,75.90361999999998
92833,75.90361999999998
92867,75.90361999999998
92900,75.90361999999998
92933,70.93596
92967,70.93596
93000,70.39106
93033,70.39106
93067,70.39106
93100,70.39106
93133,70.39106
93167,70.39106
93200,70.39106
93233,70.39106
93267,70.39106
93300,70.39106
93333,70.39106
93367,70.39106
93400,70.39106
93433,70.39106
93467,70.39106
93500,70.39106
93533,70.39106
93567,70.39106
93600,70.39106
93633,70.39106
93667,70.39106
93700,70.39106
93733,70.39106
93767,70.39106
93800,68.47825999999999
93833,68.47825999999999
93867,68.47825999999999
93900,68.47825999999999
93933,68.47825999999999
93967,68.47825999999999
94000,68.47825999999999
94033,68.47825999999999
94067,68.47825999999999
94100,68.47825999999999
94133,68.47825999999999
94167,68.47825999999999
94200,68.47825999999999
94233,68.47825999999999
94267,68.47825999999999
94300,68.47825999999999
94333,68.47825999999999
94367,68.47825999999999
94400,68.47825999999999
94433,68.47825999999999
94467,68.47825999999999
94500,66.66666
94533,66.66666
94567,66.66666
94600,66.66666
94633,66.66666
94667,66.66666
94700,66.66666
94733,66.66666
94767,66.66666
94800,66.66666
94833,66.66666
94867,64.94846
94900,64.94846
94933,64.94846
94967,64.94846
95000,64.94846
95033,64.94846
95067,64.94846
95100,64.94846
95133,64.94846
95167,64.94846
95200,64.94846
95233,63.905330000000006
95267,63.905330000000006
95300,63.905330000000006
95333,63.905330000000006
95367,63.905330000000006
95400,63.905330000000006
95433,63.905330000000006
95467,63.905330000000006
95500,63.905330000000006
95533,63.905330000000006
95567,63.905330000000006
95600,63.905330000000006
95633,63.905330000000006
95667,63.905330000000006
95700,63.905330000000006
95733,63.905330000000006
95767,63.905330000000006
95800,63.905330000000006
95833,63.95939
95867,63.95939
95900,63.95939
95933,63.95939
95967,63.95939
96000,63.95939
96033,63.95939
96067,64.28571
96100,64.28571
96133,64.28571
96167,64.28571
96200,64.28571
96233,64.28571
96267,64.28571
96300,64.28571
96333,64.28571
96367,64.28571
96400,64.28571
96433,64.28571
96467,64.28571
96500,64.28571
96533,64.28571
96567,64.28571
96600,64.28571
96633,64.28571
96667,64.28571
96700,64.28571
96733,64.28571
96767,64.28571
96800,64.28571
96833,64.28571
96867,64.28571
96900,65.625
96933,71.28713
96967,62.37624
97000,62.37624
97033,60.0
97067,60.0
97100,60.0
97133,60.0
97167,60.0
97200,60.0
97233,60.0
97267,60.0
97300,60.0
97333,60.0
97367,60.0
97400,60.0
97433,60.0
97467,60.0
97500,60.0
97533,60.33519
97567,60.33519
97600,60.33519
97633,60.33519
97667,60.33519
97700,60.33519
97733,60.33519
97767,57.69231
97800,57.69231
97833,57.69231
97867,57.69231
97900,57.69231
97933,57.75401
97967,57.75401
98000,57.75401
98033,57.75401
98067,57.75401
98100,57.75401
98133,57.75401
98167,57.75401
98200,57.75401
98233,57.75401
98267,57.75401
98300,57.75401
98333,57.75401
98367,57.75401
98400,57.75401
98433,57.75401
98467,57.75401
98500,57.75401
98533,60.0
98567,60.0
98600,60.0
98633,60.0
98667,60.0
98700,60.0
98733,60.0
98767,60.0
98800,60.0
98833,61.01695
98867,61.01695
98900,61.01695
98933,61.01695
98967,61.01695
99000,61.01695
99033,61.01695
99067,61.01695
99100,61.01695
99133,61.01695
99167,61.01695
99200,61.01695
99233,61.01695
99267,61.01695
99300,61.01695
99333,61.01695
99367,61.01695
99400,61.01695
99433,60.33519
99467,60.33519
99500,60.33519
99533,60.33519
99567,60.33519
99600,60.33519
99633,60.33519
99667,60.33519
99700,59.60265
99733,59.60265
99767,59.60265
99800,59.60265
99833,59.60265
99867,59.60265
99900,59.60265
99933,59.60265
99967,59.60265
100000,59.60265
100033,59.60265
100067,59.60265
100100,59.60265
100133,59.60265
100167,59.60265
100200,59.60265
100233,59.60265
100267,59.60265
100300,59.60265
100333,55.10204
100367,55.10204
100400,55.10204
100433,55.10204
100467,55.10204
100500,55.10204
100533,55.10204
100567,55.10204
100600,55.10204
100633,55.55556
100667,55.55556
100700,55.55556
100733,55.55556
100767,55.55556
100800,55.55556
100833,55.55556
100867,55.55556
100900,55.55556
100933,55.55556
100967,55.55556
101000,55.55556
101033,55.55556
101067,55.55556
101100,55.55556
101133,55.55556
101167,55.55556
101200,55.55556
101233,55.55556
101267,55.55556
101300,56.5445
101333,56.5445
101367,56.5445
101400,56.5445
101433,56.5445
101467,56.5445
101500,56.5445
101533,56.5445
101567,56.5445
101600,56.5445
101633,56.5445
101667,56.5445
101700,56.5445
101733,56.5445
101767,54.87805
101800,54.87805
101833,54.87805
101867,54.87805
101900,54.87805
101933,54.87805
101967,54.87805
102000,54.87805
102033,54.87805
102067,54.87805
102100,54.87805
102133,57.14286
102167,57.14286
102200,57.14286
102233,57.14286
102267,57.14286
102300,57.14286
102333,57.44681
102367,57.44681
102400,57.44681
102433,57.44681
102467,57.44681
102500,57.44681
102533,57.44681
102567,57.44681
102600,57.44681
102633,57.44681
102667,57.69231
102700,57.69231
102733,57.69231
102767,57.69231
102800,57.69231
102833,57.69231
102867,57.69231
102900,57.69231
102933,57.69231
102967,57.69231
103000,57.69231
103033,58.69565
103067,57.69231
103100,58.06452
103133,57.69231
103167,57.44681
103200,57.44681
103233,57.44681
103267,57.44681
103300,57.75401
103333,57.75401
103367,58.06452
103400,58.06452
103433,58.06452
103467,58.06452
103500,58.06452
103533,58.06452
103567,58.06452
103600,58.06452
103633,58.06452
103667,58.06452
103700,58.06452
103733,58.06452
103767,58.06452
103800,58.06452
103833,58.06452
103867,58.06452
103900,58.06452
103933,61.01695
103967,61.01695
104000,61.01695
104033,61.01695
104067,61.01695
104100,61.01695
104133,61.01695
104167,61.01695
104200,61.01695
104233,61.01695
104267,61.01695
104300,61.01695
104333,61.01695
104367,61.01695
104400,61.01695
104433,61.01695
104467,61.01695
104500,61.01695
104533,61.01695
104567,61.01695
104600,61.01695
104633,61.01695
104667,61.01695
104700,61.01695
104733,61.01695
104767,60.67416
104800,60.67416
104833,60.67416
104867,60.67416
104900,60.67416
104933,60.67416
104967,60.67416
105000,60.67416
105033,60.67416
105067,60.67416
105100,60.67416
105133,60.67416
105167,60.67416
105200,60.67416
105233,60.67416
105267,60.67416
105300,60.67416
105333,60.67416
105367,60.67416
105400,60.67416
105433,60.67416
105467,60.67416
105500,60.67416
105533,60.67416
105567,60.67416
105600,60.67416
105633,61.76471
105667,67.92453
105700,67.92453
105733,67.92453
105767,67.92453
105800,67.92453
105833,67.92453
105867,67.92453
105900,67.92453
105933,67.92453
105967,67.92453
106000,67.92453
106033,67.92453
106067,67.92453
106100,67.92453
106133,67.92453
106167,67.92453
106200,67.92453
106233,67.92453
106267,67.92453
106300,67.92453
106333,67.92453
106367,67.92453
106400,67.92453
106433,67.92453
106467,67.92453
106500,67.92453
106533,67.92453
106567,67.92453
106600,67.02128
106633,67.02128
106667,67.02128
106700,67.02128
106733,67.02128
106767,67.02128
106800,67.02128
106833,67.02128
106867,67.02128
106900,67.02128
106933,67.02128
106967,67.02128
107000,67.02128
107033,67.02128
107067,67.02128
107100,67.02128
107133,67.02128
107167,67.5
107200,67.5
107233,67.5
107267,67.5
107300,67.5
107333,67.5
107367,67.5
107400,67.5
107433,67.5
107467,67.5
107500,67.5
107533,67.5
107567,69.23076999999999
107600,69.23076999999999
107633,69.23076999999999
107667,69.23076999999999
107700,69.23076999999999
107733,69.23076999999999
107767,69.23076999999999
107800,69.23076999999999
107833,69.23076999999999
107867,69.23076999999999
107900,69.23076999999999
107933,69.23076999999999
107967,69.23076999999999
108000,69.23076999999999
108033,69.23076999999999
108067,70.58823000000002
108100,68.78981
108133,68.78981
108167,69.23076999999999
108200,69.23076999999999
108233,69.23076999999999
108267,69.23076999999999
108300,69.23076999999999
108333,69.23076999999999
108367,69.23076999999999
108400,69.23076999999999
108433,69.23076999999999
108467,69.23076999999999
108500,69.23076999999999
108533,69.23076999999999
108567,69.23076999999999
108600,69.23076999999999
108633,69.23076999999999
108667,69.23076999999999
108700,69.23076999999999
108733,69.23076999999999
108767,69.23076999999999
108800,71.64179
108833,70.39106
108867,70.93596
108900,70.93596
108933,72.0
108967,72.0
109000,72.0
109033,72.0
109067,71.59091
109100,71.59091
109133,71.59091
109167,71.59091
109200,71.59091
109233,71.59091
109267,71.59091
109300,71.59091
109333,71.59091
109367,71.59091
109400,71.59091
109433,71.59091
109467,71.59091
109500,71.59091
109533,71.59091
109567,73.09644
109600,73.09644
109633,73.09644
109667,73.09644
109700,73.09644
109733,73.09644
109767,73.09644
109800,73.09644
109833,71.18644
109867,71.18644
109900,71.18644
109933,71.18644
109967,71.18644
110000,71.18644
110033,71.18644
110067,71.18644
110100,71.18644
110133,71.18644
110167,71.18644
110200,71.18644
110233,71.18644
110267,71.18644
110300,71.18644
110333,71.18644
110367,71.18644
110400,71.28713
110433,71.28713
110467,71.28713
110500,74.11765
110533,74.11765
110567,74.11765
110600,74.11765
110633,74.11765
110667,74.11765
110700,74.11765
110733,70.0
110767,70.0
110800,70.0
110833,70.0
110867,70.0
110900,70.0
110933,70.0
110967,70.0
111000,70.0
111033,70.0
111067,70.0
111100,70.0
111133,70.0
111167,70.0
111200,70.0
111233,70.0
111267,70.0
111300,70.0
111333,70.0
111367,73.09644
111400,73.09644
111433,72.36180999999998
111467,72.36180999999998
111500,72.36180999999998
111533,72.36180999999998
111567,73.68421
111600,73.68421
111633,73.68421
111667,73.68421
111700,73.68421
111733,73.68421
111767,73.68421
111800,73.68421
111833,73.68421
111867,73.68421
111900,73.68421
111933,73.68421
111967,73.68421
112000,73.68421
112033,73.68421
112067,73.68421
112100,73.68421
112133,73.68421
112167,73.84615
112200,73.84615
112233,73.84615
112267,73.84615
112300,73.84615
112333,73.84615
112367,73.84615
112400,73.84615
112433,73.84615
112467,73.84615
112500,75.4491
112533,75.4491
112567,75.4491
112600,75.4491
112633,75.4491
112667,75.4491
112700,75.4491
112733,75.4491
112767,75.4491
112800,75.4491
112833,75.4491
112867,75.4491
112900,75.4491
112933,75.4491
112967,75.4491
113000,75.4491
113033,75.4491
113067,75.4491
113100,75.4491
113133,75.4491
113167,73.09644
113200,73.09644
113233,73.09644
113267,73.09644
113300,73.09644
113333,73.09644
113367,73.09644
113400,73.09644
113433,72.83237
113467,72.83237
113500,72.83237
113533,72.83237
113567,72.83237
113600,72.83237
113633,72.83237
113667,72.83237
113700,72.83237
113733,72.83237
113767,72.83237
113800,76.59574
113833,76.59574
113867,76.59574
113900,76.59574
113933,76.59574
113967,76.59574
114000,76.59574
114033,76.59574
114067,76.59574
114100,76.59574
114133,76.59574
114167,79.80296
114200,79.80296
114233,78.68852
114267,78.68852
114300,78.68852
114333,78.68852
114367,78.68852
114400,78.68852
114433,78.68852
114467,78.68852
114500,78.68852
114533,78.68852
114567,78.68852
114600,78.68852
114633,78.68852
114667,78.68852
114700,78.68852
114733,78.26087
114767,78.26087
114800,78.26087
114833,78.26087
114867,76.59574
114900,69.61326
114933,69.61326
114967,69.61326
115000,69.61326
115033,69.61326
115067,69.61326
115100,69.61326
115133,69.61326
115167,69.61326
115200,69.61326
115233,69.61326
115267,79.55801
115300,79.55801
115333,79.55801
115367,83.07692
115400,83.07692
115433,83.07692
115467,83.07692
115500,82.23351
115533,82.23351
115567,82.23351
115600,82.23351
115633,83.23699
115667,83.23699
115700,83.23699
115733,83.23699
115767,83.23699
115800,83.23699
115833,86.63101999999998
115867,96.25668
115900,96.25668
115933,96.25668
115967,96.25668
116000,96.25668
116033,96.25668
116067,96.25668
116100,96.25668
116133,96.25668
116167,96.25668
116200,96.25668
116233,96.25668
116267,96.25668
116300,96.25668
116333,96.25668
116367,96.25668
116400,96.25668
116433,103.8462
116467,103.8462
116500,103.8462
116533,103.8462
116567,103.8462
116600,100.5587
116633,100.5587
116667,100.5587
116700,100.0
116733,100.0
116767,100.0
116800,100.0
116833,110.0
116867,110.0
116900,110.0
116933,110.0
116967,110.0
117000,110.0
117033,110.0
117067,110.0
117100,111.3402
117133,111.3402
117167,111.3402
117200,111.3402
117233,111.3402
117267,111.3402
117300,111.3402
117333,111.3402
117367,111.3402
117400,111.3402
117433,111.3402
117467,116.4706
117500,116.4706
117533,116.4706
117567,116.4706
117600,116.4706
117633,116.129
117667,116.129
117700,116.129
117733,116.129
117767,116.129
117800,116.129
117833,116.129
117867,116.129
117900,116.129
117933,116.129
117967,116.129
118000,116.129
118033,116.129
118067,116.129
118100,116.129
118133,116.4179
118167,116.4179
118200,116.4179
118233,116.4179
118267,118.0328
118300,118.0328
118333,118.0328
118367,118.0328
118400,118.0328
118433,118.0328
118467,118.0328
118500,118.0328
118533,118.0328
118567,117.3913
118600,117.3913
118633,117.3913
118667,117.0
118700,117.0
118733,117.0
118767,117.0
118800,117.0
118833,116.4706
118867,116.4706
118900,116.129
118933,116.129
118967,116.129
119000,116.129
119033,116.129
119067,116.4706
119100,108.5427
119133,108.5427
119167,108.5427
119200,108.5427
119233,108.5427
119267,108.5427
119300,107.6087
119333,107.6087
119367,107.6087
119400,107.6087
119433,107.6087
119467,107.6087
119500,107.6087
119533,107.6087
119567,107.6087
119600,107.6087
119633,108.0
119667,108.0
119700,108.5427
119733,108.5427
119767,108.5427
119800,106.4516
119833,106.4516
119867,106.4516
119900,106.4516
119933,106.4516
119967,106.4516
120000,109.0909
120033,109.0909
120067,109.0909
120100,109.0909
120133,109.0909
120167,109.0909
120200,109.0909
120233,109.3923
120267,109.3923
120300,109.3923
120333,109.3923
120367,109.3923
120400,109.3923
120433,109.3923
120467,109.3923
120500,109.3923
120533,109.6447
120567,109.6447
120600,109.6447
120633,109.6447
120667,109.6447
120700,109.6447
120733,109.6447
120767,109.6447
120800,107.6087
120833,107.6087
120867,107.6087
120900,107.6087
120933,107.6087
120967,107.6087
121000,107.6087
121033,107.6087
121067,107.6087
121100,107.4627
121133,107.4627
121167,107.4627
121200,107.4627
121233,106.4516
121267,106.4516
121300,106.4516
121333,106.4516
121367,106.4516
121400,106.4516
121433,106.4516
121467,106.4516
121500,106.4516
121533,106.4516
121567,106.4516
121600,106.4516
121633,106.9307
121667,106.9307
121700,106.9307
121733,105.3191
121767,105.3191
121800,105.3191
121833,105.3191
121867,105.3191
121900,105.3191
121933,105.3191
121967,105.3191
122000,105.3191
122033,105.3191
122067,107.4627
122100,107.4627
122133,107.4627
122167,107.4627
122200,106.4516
122233,106.4516
122267,106.4516
122300,106.4516
122333,106.4516
122367,106.4516
122400,116.129
122433,116.129
122467,116.129
122500,116.129
122533,117.0
122567,117.0
122600,117.0
122633,117.0
122667,117.0
122700,122.0339
122733,122.0339
122767,122.0339
122800,122.0339
122833,122.0339
122867,111.8644
122900,111.8644
122933,114.2857
122967,114.2857
123000,114.2857
123033,114.2857
123067,114.2857
123100,114.2857
123133,114.2857
123167,114.2857
123200,114.2857
123233,114.2857
123267,114.2857
123300,114.2857
123333,114.2857
123367,114.2857
123400,114.2857
123433,114.7059
123467,113.6842
123500,113.6842
123533,113.6842
123567,113.6842
123600,113.6842
123633,113.6842
123667,113.6842
123700,113.6842
123733,113.6842
123767,113.6842
123800,113.6842
123833,113.6842
123867,113.6842
123900,113.6842
123933,114.2857
123967,114.2857
124000,114.2857
124033,114.2857
124067,114.2857
124100,114.2857
124133,114.2857
124167,114.2857
124200,114.2857
124233,114.2857
124267,114.2857
124300,114.2857
124333,114.2857
124367,114.2857
124400,114.2857
124433,114.7059
124467,113.6842
124500,113.6842
124533,113.6842
124567,113.6842
124600,113.6842
124633,113.6842
124667,113.6842
124700,113.6842
124733,113.6842
124767,113.6842
124800,113.6842
124833,113.6842
124867,113.6842
124900,113.6842
124933,123.4286
124967,123.4286
125000,123.4286
125033,123.4286
125067,123.4286
125100,123.4286
125133,123.4286
125167,123.4286
125200,123.4286
125233,123.4286
125267,123.4286
125300,123.4286
125333,123.4286
125367,123.4286
125400,123.4286
125433,123.1579
125467,123.1579
125500,123.1579
125533,123.1579
125567,123.1579
125600,123.1579
125633,123.1579
125667,123.1579
125700,123.1579
125733,123.1579
125767,123.1579
125800,123.1579
125833,123.1579
125867,123.1579
125900,123.1579
125933,123.1579
125967,123.4286
126000,123.4286
126033,123.4286
126067,124.4681
126100,124.4681
126133,124.4681
126167,123.8095
126200,123.8095
126233,123.8095
126267,123.8095
126300,123.4286
126333,123.4286
126367,123.4286
126400,123.4286
126433,121.4724
126467,121.4724
126500,121.4724
126533,121.4724
126567,120.7317
126600,109.0909
126633,109.0909
126667,109.0909
126700,109.0909
126733,109.0909
126767,109.6447
126800,109.6447
126833,108.7912
126867,108.7912
126900,108.7912
126933,108.7912
126967,108.1967
127000,108.1967
127033,108.1967
127067,108.1967
127100,108.1967
127133,108.1967
127167,108.1967
127200,108.1967
127233,108.1967
127267,108.1967
127300,108.1967
127333,108.1967
127367,107.7844
127400,107.7844
127433,107.1429
127467,107.1429
127500,107.1429
127533,107.1429
127567,96.42857
127600,96.42857
127633,96.42857
127667,96.42857
127700,96.42857
127733,96.42857
127767,96.42857
127800,96.42857
127833,96.42857
127867,96.0
127900,86.17021
127933,86.17021
127967,86.17021
128000,86.17021
128033,86.17021
128067,86.17021
128100,86.17021
128133,86.17021
128167,86.17021
128200,86.17021
128233,86.17021
128267,86.17021
128300,86.17021
128333,86.17021
128367,86.17021
128400,76.59574
128433,76.59574
128467,77.30060999999998
128500,77.30060999999998
128533,77.30060999999998
128567,77.30060999999998
128600,77.30060999999998
128633,77.83784
128667,77.30060999999998
128700,77.00535
128733,77.00535
128767,77.00535
128800,77.00535
128833,77.00535
128867,77.00535
128900,77.00535
128933,77.00535
128967,77.00535
129000,77.00535
129033,77.00535
129067,77.00535
129100,77.00535
129133,77.00535
129167,77.00535
129200,77.00535
129233,77.00535
129267,77.00535
129300,73.68421
129333,73.68421
129367,73.68421
129400,73.68421
129433,74.6114
129467,74.6114
129500,74.6114
129533,74.6114
129567,74.6114
129600,74.6114
129633,74.6114
129667,74.6114
129700,74.6114
129733,74.6114
129767,74.6114
129800,74.6114
129833,69.61326
129867,69.61326
129900,69.61326
129933,69.61326
129967,69.61326
130000,69.61326
130033,69.61326
130067,69.61326
130100,69.61326
130133,69.61326
130167,70.93596
130200,70.93596
130233,68.47825999999999
130267,68.47825999999999
130300,68.47825999999999
130333,68.47825999999999
130367,68.47825999999999
130400,68.47825999999999
130433,68.47825999999999
130467,68.47825999999999
130500,68.47825999999999
130533,68.47825999999999
130567,68.47825999999999
130600,68.47825999999999
130633,68.47825999999999
130667,68.47825999999999
130700,68.47825999999999
130733,68.47825999999999
130767,65.96859
130800,65.96859
130833,65.96859
130867,64.67066
130900,67.5
130933,67.5
130967,67.5
131000,67.5
131033,67.5
131067,67.5
131100,67.5
131133,67.5
131167,67.5
131200,67.5
131233,67.5
131267,67.5
131300,67.5
131333,67.5
131367,67.5
131400,67.5
131433,65.28497
131467,65.28497
131500,65.28497
131533,65.28497
131567,65.28497
131600,65.28497
131633,65.28497
131667,64.28571
131700,64.28571
131733,64.28571
131767,64.28571
131800,64.28571
131833,64.28571
131867,64.28571
131900,64.28571
131933,64.28571
131967,64.28571
132000,66.31579
132033,64.28571
132067,65.625
132100,65.625
132133,65.625
132167,65.625
132200,65.625
132233,65.625
132267,65.625
132300,65.625
132333,65.625
132367,65.625
132400,65.625
132433,65.625
132467,65.625
132500,66.25766999999999
132533,66.25766999999999
132567,66.25766999999999
132600,66.25766999999999
132633,66.25766999999999
132667,66.25766999999999
132700,66.25766999999999
132733,66.25766999999999
132767,66.25766999999999
132800,66.25766999999999
132833,66.25766999999999
132867,66.25766999999999
132900,66.25766999999999
132933,66.25766999999999
132967,66.25766999999999
133000,65.96859
133033,65.96859
133067,65.96859
133100,65.96859
133133,66.31579
133167,66.25766999999999
133200,66.25766999999999
133233,66.25766999999999
133267,64.28571
133300,64.28571
133333,64.28571
133367,64.28571
133400,63.95939
133433,63.95939
133467,67.92453
133500,67.92453
133533,67.92453
133567,67.92453
133600,67.92453
133633,73.25581
133667,73.25581
133700,73.25581
133733,73.25581
133767,73.25581
133800,73.25581
133833,83.72093000000002
133867,83.72093000000002
133900,83.72093000000002
133933,83.72093000000002
133967,83.72093000000002
134000,83.72093000000002
134033,83.72093000000002
134067,83.72093000000002
134100,87.09676999999998
134133,87.09676999999998
134167,87.09676999999998
134200,87.09676999999998
134233,87.09676999999998
134267,87.09676999999998
134300,87.09676999999998
134333,87.09676999999998
134367,87.09676999999998
134400,96.77419
134433,96.77419
134467,96.77419
134500,96.77419
134533,96.77419
134567,99.0
134600,98.0198
134633,98.0198
134667,102.2727
134700,102.2727
134733,102.2727
134767,102.8571
134800,102.8571
134833,102.8571
134867,102.8571
134900,102.8571
134933,102.8571
134967,102.8571
135000,104.7619
135033,114.2857
135067,114.2857
135100,114.2857
135133,114.2857
135167,114.2857
135200,114.2857
135233,114.2857
135267,114.2857
135300,114.2857
135333,114.2857
135367,114.2857
135400,114.2857
135433,114.2857
135467,114.2857
135500,114.7059
135533,118.0328
135567,118.0328
135600,118.0328
135633,118.0328
135667,118.0328
135700,118.0328
135733,118.0328
135767,118.0328
135800,118.0328
135833,118.0328
135867,118.0328
135900,118.0328
135933,118.0328
135967,118.7817
136000,118.7817
136033,118.7817
136067,118.7817
136100,118.7817
136133,118.7817
136167,118.7817
136200,118.7817
136233,125.5814
136267,125.5814
136300,125.5814
136333,125.5814
136367,125.5814
136400,125.5814
136433,125.5814
136467,125.5814
136500,124.4681
136533,124.4681
136567,124.4681
136600,124.4681
136633,124.4681
136667,124.4681
136700,124.4681
136733,124.4681
136767,124.4681
136800,124.4681
136833,124.4681
136867,124.4681
136900,124.4681
136933,124.4681
136967,124.4681
137000,124.4681
137033,125.3731
137067,125.8064
137100,125.8064
137133,125.8064
137167,125.8064
137200,125.8064
137233,125.8064
137267,125.8064
137300,125.8064
137333,125.8064
137367,125.8064
137400,125.8064
137433,125.8064
137467,125.8064
137500,125.8064
137533,125.8064
137567,126.3158
137600,126.3158
137633,126.3158
137667,126.3158
137700,126.3158
137733,126.3158
137767,126.3158
137800,118.7817
137833,118.7817
137867,118.7817
137900,118.7817
137933,118.7817
137967,118.7817
138000,118.7817
138033,118.7817
138067,118.0328
138100,118.0328
138133,118.0328
138167,118.0328
138200,118.0328
138233,118.0328
138267,118.0328
138300,118.1818
138333,118.1818
138367,118.1818
138400,118.1818
138433,118.1818
138467,118.1818
138500,118.1818
138533,117.3913
138567,117.3913
138600,117.3913
138633,117.3913
138667,117.3913
138700,117.3913
138733,117.3913
138767,118.1818
138800,117.5879
138833,117.5879
138867,117.5879
138900,117.5879
138933,117.5879
138967,117.5879
139000,118.0328
139033,118.0328
139067,118.0328
139100,118.0328
139133,118.0328
139167,118.0328
139200,118.0328
139233,118.0328
139267,118.0328
139300,118.1818
139333,118.1818
139367,118.1818
139400,118.1818
139433,118.1818
139467,118.1818
139500,118.1818
139533,118.0328
139567,118.0328
139600,118.0328
139633,118.0328
139667,118.0328
139700,118.0328
139733,118.0328
139767,118.0328
139800,118.1818
139833,118.1818
139867,118.1818
139900,118.1818
139933,118.1818
139967,118.1818
140000,118.1818
140033,116.7568
140067,116.7568
140100,116.7568
140133,116.7568
140167,116.7568
140200,116.7568
140233,116.7568
140267,116.7568
140300,117.0
140333,117.0
140367,117.0
140400,117.0
140433,117.0
140467,116.129
140500,116.129
140533,116.129
140567,116.129
140600,116.129
140633,116.129
140667,116.129
140700,116.129
140733,116.129
140767,116.129
140800,116.4179
140833,116.4179
140867,116.4179
140900,116.4179
140933,114.8936
140967,114.8936
141000,114.8936
141033,114.8936
141067,114.8936
141100,114.8936
141133,114.8936
141167,114.8936
141200,114.8936
141233,114.8936
141267,114.8936
141300,116.4179
141333,116.4179
141367,115.508
141400,115.508
141433,115.508
141467,115.508
141500,115.508
141533,115.508
141567,115.508
141600,115.508
141633,115.508
141667,115.508
141700,115.508
141733,116.4179
141767,116.4179
141800,116.4179
141833,116.129
141867,116.129
141900,116.129
141933,116.129
141967,116.129
142000,116.129
142033,116.129
142067,116.129
142100,116.129
142133,116.129
142167,117.0
142200,117.0
142233,117.0
142267,117.0
142300,117.0
142333,116.129
142367,116.129
142400,116.129
142433,116.129
142467,116.129
142500,116.129
142533,116.129
142567,116.129
142600,116.129
142633,116.129
142667,116.129
142700,116.129
142733,116.129
142767,114.7059
142800,114.8936
142833,114.8936
142867,114.8936
142900,114.8936
142933,114.8936
142967,114.8936
143000,114.8936
143033,114.8936
143067,114.8936
143100,114.8936
143133,114.8936
143167,114.8936
143200,114.8936
143233,114.8936
143267,115.2709
143300,115.2709
143333,113.6842
143367,113.6842
143400,113.6842
143433,113.6842
143467,113.6842
143500,113.6842
143533,113.6842
143567,113.6842
143600,113.6842
143633,113.6842
143667,113.6842
143700,113.6842
143733,113.6842
143767,120.7317
143800,120.0
143833,120.0
143867,120.0
143900,120.6704
143933,120.6704
143967,120.6704
144000,120.6704
144033,120.6704
144067,120.6704
144100,120.6704
144133,120.6704
144167,120.6704
144200,120.6704
144233,120.6704
144267,120.6704
144300,121.875
144333,121.875
144367,121.875
144400,121.875
144433,121.875
144467,121.875
144500,121.875
144533,121.875
144567,121.875
144600,125.3731
144633,125.8064
144667,125.8064
144700,125.8064
144733,125.8064
144767,125.8064
144800,125.8064
144833,125.8064
144867,125.8064
144900,125.8064
144933,125.8064
144967,125.8064
145000,125.8064
145033,124.7525
145067,124.7525
145100,124.7525
145133,125.1337
145167,125.1337
145200,125.1337
145233,125.1337
145267,125.1337
145300,125.1337
145333,125.1337
145367,125.1337
145400,125.1337
145433,125.1337
145467,125.1337
145500,125.3731
145533,125.3731
145567,125.3731
145600,125.3731
145633,125.8064
145667,125.8064
145700,125.8064
145733,125.8064
145767,125.8064
145800,125.8064
145833,125.8064
145867,125.8064
145900,125.8064
145933,125.8064
145967,125.8064
146000,125.8064
146033,124.7525
146067,124.7525
146100,124.7525
146133,124.4681
146167,124.4681
146200,124.4681
146233,124.4681
146267,124.4681
146300,124.4681
146333,114.8936
146367,114.8936
146400,114.8936
146433,114.8936
146467,114.8936
146500,114.8936
146533,114.8936
146567,114.8936
146600,115.1163
146633,115.1163
146667,115.1163
146700,115.1163
146733,115.1163
146767,115.1163
146800,110.7692
146833,101.5385
146867,101.5385
146900,101.5385
146933,101.5385
146967,101.5385
147000,101.5385
147033,101.5385
147067,101.5385
147100,101.5385
147133,90.0
147167,90.0
147200,90.0
147233,80.0
147267,80.0
147300,80.0
147333,80.0
147367,80.0
147400,80.0
147433,80.0
147467,80.0
147500,80.0
147533,80.0
147567,80.0
147600,80.0
147633,74.55621
147667,74.55621
147700,74.55621
147733,74.55621
147767,74.55621
147800,74.55621
147833,74.55621
147867,74.55621
147900,74.55621
147933,74.55621
147967,70.58823000000002
148000,67.02128
148033,67.02128
148067,67.02128
148100,66.66666
148133,66.66666
148167,66.66666
148200,66.66666
148233,66.66666
148267,66.66666
148300,66.66666
148333,66.66666
148367,66.66666
148400,66.66666
148433,66.66666
148467,66.66666
148500,66.66666
148533,62.06896999999999
148567,62.06896999999999
148600,62.06896999999999
148633,62.06896999999999
148667,62.06896999999999
148700,62.06896999999999
148733,62.06896999999999
148767,62.06896999999999
148800,62.06896999999999
148833,62.06896999999999
148867,62.06896999999999
148900,62.06896999999999
148933,62.06896999999999
148967,62.06896999999999
149000,62.06896999999999
149033,63.380280000000006
149067,63.380280000000006
149100,63.380280000000006
149133,63.380280000000006
149167,61.01695
149200,61.01695
149233,61.01695
149267,61.01695
149300,61.01695
149333,61.01695
149367,55.90062
149400,55.90062
149433,55.90062
149467,55.90062
149500,55.90062
149533,55.90062
149567,55.90062
149600,55.90062
149633,55.90062
149667,55.90062
149700,55.90062
149733,55.90062
149767,55.90062
149800,55.90062
149833,55.90062
149867,55.90062
149900,58.69565
149933,58.69565
149967,58.69565
150000,58.69565
150033,58.69565
150067,58.69565
150100,58.69565
150133,58.69565
150167,58.69565
150200,58.37838000000001
150233,58.06452
150267,57.75401
150300,57.44681
150333,57.44681
150367,57.44681
150400,57.44681
150433,57.44681
150467,63.0
150500,63.0
150533,63.0
150567,63.0
150600,66.66666
150633,66.66666
150667,66.66666
150700,77.77778
150733,77.77778
150767,77.77778
150800,77.77778
150833,93.10345
150867,93.10345
150900,93.10345
150933,93.10345
150967,93.10345
151000,93.10345
151033,93.10345
151067,93.10345
151100,93.10345
151133,93.10345
151167,93.10345
151200,98.36066
151233,97.82609
151267,97.82609
151300,97.82609
151333,97.82609
151367,97.82609
151400,97.82609
151433,97.82609
151467,97.82609
151500,97.82609
151533,102.0619
151567,102.0619
151600,102.0619
151633,102.0619
151667,102.0619
151700,102.0619
151733,106.9307
151767,106.9307
151800,106.9307
151833,115.7895
151867,115.7895
151900,115.7895
151933,115.7895
151967,115.7895
152000,115.7895
152033,115.7895
152067,115.7895
152100,118.6813
152133,118.6813
152167,118.6813
152200,118.6813
152233,118.6813
152267,118.6813
152300,118.6813
152333,118.6813
152367,118.6813
152400,118.6813
152433,118.6813
152467,121.2435
152500,121.2435
152533,121.2435
152567,121.2435
152600,121.2435
152633,130.5699
152667,130.5699
152700,130.5699
152733,130.5699
152767,130.5699
152800,130.5699
152833,132.3529
152867,139.8964
152900,139.8964
152933,139.8964
152967,139.8964
153000,139.8964
153033,139.8964
153067,139.8964
153100,139.8964
153133,139.8964
153167,139.8964
153200,141.1765
153233,139.8964
153267,139.8964
153300,139.8964
153333,139.8964
153367,139.8964
153400,139.8964
153433,139.8964
153467,139.8964
153500,139.8964
153533,139.8964
153567,139.8964
153600,163.6364
153633,163.6364
153667,160.7143
153700,160.7143
153733,160.7143
153767,160.7143
153800,160.7143
153833,150.0
153867,150.0
153900,150.8982
153933,150.8982
153967,150.8982
154000,150.8982
154033,150.8982
154067,150.8982
154100,149.1713
154133,149.1713
154167,149.1713
154200,149.1713
154233,149.1713
154267,149.1713
154300,149.1713
154333,149.1713
154367,149.1713
154400,139.2265
154433,139.2265
154467,139.2265
154500,139.2265
154533,139.2265
154567,139.2265
154600,139.2265
154633,139.2265
154667,136.3636
154700,136.3636
154733,136.3636
154767,136.3636
154800,136.3636
154833,136.3636
154867,136.3636
154900,133.3333
154933,133.3333
154967,133.3333
155000,133.3333
155033,133.3333
155067,133.3333
155100,133.3333
155133,133.3333
155167,133.3333
155200,132.9545
155233,130.5699
155267,132.9545
155300,129.2308
155333,129.2308
155367,129.2308
155400,129.2308
155433,129.2308
155467,129.2308
155500,120.0
155533,120.0
155567,120.0
155600,120.0
155633,115.508
155667,115.508
155700,115.508
155733,115.508
155767,115.508
155800,115.508
155833,115.508
155867,114.7059
155900,112.5
155933,112.5
155967,112.5
156000,112.5
156033,112.5
156067,112.5
156100,112.5
156133,112.5
156167,112.5
156200,112.5
156233,112.5
156267,112.5
156300,116.129
156333,116.129
156367,116.129
156400,116.129
156433,116.129
156467,116.129
156500,116.129
156533,116.129
156567,116.129
156600,116.129
156633,116.129
156667,116.129
156700,116.129
156733,116.129
156767,116.129
156800,116.129
156833,116.129
156867,116.129
156900,116.129
156933,113.1429
156967,110.7692
157000,110.7692
157033,110.7692
157067,110.7692
157100,110.7692
157133,110.7692
157167,110.7692
157200,110.7692
157233,110.7692
157267,110.7692
157300,107.027
157333,107.027
157367,107.027
157400,107.027
157433,107.027
157467,107.027
157500,107.027
157533,107.027
157567,106.4039
157600,106.4039
157633,105.3191
157667,105.3191
157700,105.3191
157733,105.3191
157767,105.3191
157800,105.3191
157833,105.3191
157867,105.3191
157900,105.3191
157933,105.3191
157967,105.3191
158000,105.3191
158033,105.3191
158067,105.3191
158100,105.3191
158133,104.6512
158167,104.6512
158200,104.6512
158233,104.6512
158267,102.5907
158300,102.5907
158333,102.5907
158367,102.5907
158400,102.5907
158433,102.5907
158467,102.5907
158500,102.5907
158533,102.5907
158567,102.5907
158600,102.5907
158633,102.5907
158667,102.8571
158700,102.8571
158733,102.8571
158767,102.8571
158800,102.8571
158833,102.8571
158867,102.8571
158900,102.8571
158933,102.8571
158967,101.0204
159000,101.0204
159033,101.0204
159067,101.0204
159100,101.0204
159133,101.0204
159167,101.0204
159200,101.0204
159233,101.0204
159267,100.0
159300,100.0
159333,100.0
159367,100.0
159400,100.0
159433,100.0
159467,100.0
159500,101.0204
159533,101.0204
159567,101.0204
159600,101.0204
159633,101.0204
159667,101.0204
159700,101.0204
159733,101.0204
159767,101.0204
159800,99.44752
159833,99.44752
159867,99.44752
159900,99.44752
159933,99.44752
159967,101.5385
160000,101.5385
160033,101.5385
160067,101.5385
160100,101.5385
160133,101.5385
160167,101.5385
160200,101.5385
160233,101.5385
160267,101.5385
160300,101.6949
160333,101.6949
160367,101.6949
160400,101.6949
160433,101.6949
160467,101.6949
160500,101.6949
160533,101.6949
160567,101.6949
160600,101.6949
160633,101.6949
160667,101.6949
160700,101.6949
160733,101.6949
160767,101.6949
160800,98.0198
160833,98.0198
160867,98.0198
160900,97.82609
160933,97.82609
160967,97.82609
161000,97.82609
161033,97.82609
161067,97.82609
161100,97.82609
161133,97.82609
161167,97.82609
161200,97.82609
161233,97.82609
161267,97.82609
161300,97.82609
161333,97.82609
161367,97.82609
161400,97.82609
161433,97.82609
161467,97.05882
161500,97.29729
161533,97.29729
161567,97.29729
161600,97.29729
161633,97.29729
161667,97.29729
161700,97.29729
161733,97.29729
161767,97.29729
161800,97.29729
161833,97.29729
161867,97.29729
161900,97.29729
161933,97.29729
161967,97.29729
162000,97.29729
162033,97.29729
162067,97.29729
162100,97.29729
162133,97.82609
162167,97.82609
162200,97.82609
162233,97.82609
162267,97.29729
162300,97.29729
162333,97.29729
162367,97.29729
162400,97.29729
162433,96.77419
162467,96.77419
162500,99.49749
162533,99.49749
162567,99.49749
162600,99.49749
162633,99.49749
162667,99.49749
162700,97.29729
162733,97.29729
162767,97.29729
162800,97.29729
162833,107.027
162867,107.027
162900,109.6447
162933,109.6447
162967,109.6447
163000,109.6447
163033,109.6447
163067,109.6447
163100,109.6447
163133,110.2041
163167,111.236
163200,111.236
163233,111.236
163267,114.2857
163300,114.2857
163333,114.2857
163367,114.2857
163400,114.2857
163433,114.2857
163467,114.2857
163500,114.2857
163533,114.2857
163567,114.2857
163600,114.2857
163633,114.2857
163667,116.4179
163700,116.4179
163733,116.4179
163767,116.4179
163800,118.6813
163833,118.6813
163867,118.6813
163900,118.6813
163933,128.5714
163967,128.5714
164000,128.5714
164033,128.5714
164067,128.5714
164100,128.5714
164133,128.5714
164167,128.5714
164200,128.5714
164233,129.2308
164267,129.2308
164300,129.2308
164333,129.2308
164367,129.2308
164400,129.2308
164433,131.4607
164467,131.4607
164500,132.6316
164533,132.6316
164567,132.6316
164600,132.6316
164633,132.6316
164667,132.6316
164700,132.6316
164733,132.6316
164767,132.6316
164800,132.6316
164833,132.6316
164867,132.6316
164900,133.6634
164933,133.6634
164967,133.6634
165000,141.57299999999995
165033,141.57299999999995
165067,141.57299999999995
165100,141.57299999999995
165133,141.57299999999995
165167,141.57299999999995
165200,141.57299999999995
165233,141.57299999999995
165267,141.57299999999995
165300,141.57299999999995
165333,141.3613
165367,141.3613
165400,141.3613
165433,141.3613
165467,141.3613
165500,150.7853
165533,150.7853
165567,150.7853
165600,150.7853
165633,150.7853
165667,152.2388
165700,152.2388
165733,152.2388
165767,152.2388
165800,154.0107
165833,154.0107
165867,154.0107
165900,154.0107
165933,154.0107
165967,154.0107
166000,154.0107
166033,154.0107
166067,153.7688
166100,153.0
166133,153.0
166167,153.0
166200,153.0
166233,151.5789
166267,151.5789
166300,151.5789
166333,151.5789
166367,151.5789
166400,151.5789
166433,151.5789
166467,152.2388
166500,152.2388
166533,152.2388
166567,151.5789
166600,151.5789
166633,151.5789
166667,151.5789
166700,151.5789
166733,151.5789
166767,151.5789
166800,151.5789
166833,151.4852
166867,151.4852
166900,151.4852
166933,151.5789
166967,151.5789
167000,151.5789
167033,151.5789
167067,151.5789
167100,151.5789
167133,151.5789
167167,151.5789
167200,151.5789
167233,151.4852
167267,151.4852
167300,151.4852
167333,150.7853
167367,150.7853
167400,150.7853
167433,150.7853
167467,150.7853
167500,150.7853
167533,150.7853
167567,150.7853
167600,150.7853
167633,150.7389
167667,150.7389
167700,151.5789
167733,151.5789
167767,151.5789
167800,151.5789
167833,151.5789
167867,151.5789
167900,151.5789
167933,151.5789
167967,151.5789
168000,151.5789
168033,151.5789
168067,150.7389
168100,150.7389
168133,150.0
168167,150.0
168200,150.0
168233,150.0
168267,150.0
168300,150.0
168333,150.0
168367,150.0
168400,150.0
168433,150.0
168467,150.0
168500,145.946
168533,136.2162
168567,136.2162
168600,136.2162
168633,136.2162
168667,135.4839
168700,135.4839
168733,135.4839
168767,135.4839
168800,135.4839
168833,135.4839
168867,135.4839
168900,135.4839
168933,134.4828
168967,129.8969
169000,129.8969
169033,129.8969
169067,129.8969
169100,129.8969
169133,129.8969
169167,129.8969
169200,120.6186
169233,120.6186
169267,120.6186
169300,120.6186
169333,108.7912
169367,108.7912
169400,108.7912
169433,108.7912
169467,108.7912
169500,108.7912
169533,108.7912
169567,108.7912
169600,108.7912
169633,108.7912
169667,106.4039
169700,106.4039
169733,103.125
169767,103.125
169800,103.125
169833,103.125
169867,103.125
169900,103.125
169933,103.125
169967,103.125
170000,103.125
170033,103.125
170067,103.125
170100,101.1236
170133,101.1236
170167,101.1236
170200,101.1236
170233,101.1236
170267,101.1236
170300,101.1236
170333,101.1236
170367,101.1236
170400,101.1236
170433,101.1236
170467,101.1236
170500,101.1236
170533,101.1236
170567,105.1948
170600,105.1948
170633,98.36066
170667,105.1948
170700,105.1948
170733,96.77419
170767,96.77419
170800,96.77419
170833,96.77419
170867,96.77419
170900,96.77419
170933,96.77419
170967,96.77419
171000,96.77419
171033,96.77419
171067,96.77419
171100,96.77419
171133,96.77419
171167,87.09676999999998
171200,90.0
171233,87.09676999999998
171267,89.10891
171300,89.10891
171333,87.09676999999998
171367,81.81818
171400,81.81818
171433,82.23351
171467,82.23351
171500,82.23351
171533,82.23351
171567,82.23351
171600,82.23351
171633,82.23351
171667,82.23351
171700,78.68852
171733,78.68852
171767,78.68852
171800,78.68852
171833,78.68852
171867,78.68852
171900,78.68852
171933,78.68852
171967,78.68852
172000,78.68852
172033,78.68852
172067,78.68852
172100,78.68852
172133,78.68852
172167,72.83237
172200,72.83237
172233,72.83237
172267,72.83237
172300,72.36180999999998
172333,72.36180999999998
172367,72.36180999999998
172400,72.83237
172433,72.83237
172467,72.83237
172500,67.08074
172533,67.08074
172567,67.08074
172600,64.28571
172633,64.28571
172667,64.28571
172700,64.28571
172733,64.28571
172767,64.28571
172800,64.28571
172833,64.28571
172867,64.28571
172900,63.52941
172933,63.52941
172967,63.52941
173000,63.52941
173033,63.52941
173067,69.23076999999999
173100,69.61326
173133,69.23076999999999
173167,69.23076999999999
173200,69.23076999999999
173233,69.23076999999999
173267,69.23076999999999
173300,69.23076999999999
173333,69.23076999999999
173366,69.23076999999999
173400,69.23076999999999
173433,69.23076999999999
173466,69.23076999999999
173500,69.23076999999999
173533,69.23076999999999
173566,69.23076999999999
173600,69.23076999999999
173633,69.23076999999999
173666,69.23076999999999
173700,69.23076999999999
173733,69.23076999999999
173766,69.23076999999999
173800,69.23076999999999
173833,69.23076999999999
173866,69.23076999999999
173900,69.23076999999999
173933,69.23076999999999
173966,69.23076999999999
174000,69.23076999999999
174033,69.23076999999999
174066,69.23076999999999
174100,69.23076999999999
174133,69.23076999999999
174166,69.23076999999999
174200,69.23076999999999
174233,69.23076999999999
174266,69.23076999999999
174300,69.23076999999999
174333,69.23076999999999
174366,69.23076999999999
174400,69.23076999999999
174433,69.23076999999999
174466,69.23076999999999
174500,69.23076999999999
174533,69.23076999999999
174566,69.23076999999999
174600,69.23076999999999
174633,69.23076999999999
174666,69.23076999999999
174700,69.23076999999999
174733,69.23076999999999
174766,69.23076999999999
174800,69.23076999999999
174833,69.23076999999999
174866,69.23076999999999
174900,69.23076999999999
174933,69.23076999999999
174966,69.23076999999999
175000,69.23076999999999
175033,69.23076999999999
175066,69.23076999999999
175100,69.23076999999999
175133,69.23076999999999
175166,69.23076999999999
175200,69.23076999999999
175233,69.23076999999999
175266,69.23076999999999
175300,69.23076999999999
175333,69.23076999999999
175366,69.23076999999999
175400,69.23076999999999
175433,69.23076999999999
175466,69.23076999999999
175500,69.23076999999999
175533,69.23076999999999
175566,69.23076999999999
175600,69.23076999999999
175633,69.23076999999999
175666,69.23076999999999
175700,69.23076999999999
175733,69.23076999999999
175766,69.23076999999999
175800,69.23076999999999
175833,69.23076999999999
175866,69.23076999999999
175900,69.23076999999999
175933,69.23076999999999
175966,69.23076999999999
176000,69.23076999999999
176033,69.23076999999999
176066,69.23076999999999
176100,69.23076999999999
176133,69.23076999999999
176166,69.23076999999999
176200,69.23076999999999
176233,69.23076999999999
176266,69.23076999999999
176300,69.23076999999999
176333,69.23076999999999
176366,69.23076999999999
176400,69.23076999999999
176433,69.23076999999999
176466,69.23076999999999
176500,69.23076999999999
176533,69.23076999999999
176566,69.23076999999999
176600,69.23076999999999
176633,69.23076999999999
176666,69.23076999999999
176700,69.23076999999999
176733,69.23076999999999
176766,69.23076999999999
176800,69.23076999999999
176833,69.23076999999999
176866,69.23076999999999
176900,69.23076999999999
176933,69.23076999999999
176966,69.23076999999999
177000,69.23076999999999
177033,69.23076999999999
177066,69.23076999999999
177100,69.23076999999999
177133,69.23076999999999
177166,69.23076999999999
177200,69.23076999999999
177233,69.23076999999999
177266,69.23076999999999
177300,69.23076999999999
177333,69.23076999999999
177366,69.23076999999999
177400,69.23076999999999
177433,69.23076999999999
177466,69.23076999999999
177500,69.23076999999999
177533,69.23076999999999
177566,69.23076999999999
177600,69.23076999999999
177633,69.23076999999999
177666,69.23076999999999
177700,69.23076999999999
177733,69.23076999999999
177766,69.23076999999999
177800,69.23076999999999
177833,69.23076999999999
177866,69.23076999999999
177900,69.23076999999999
177933,69.23076999999999
177966,69.23076999999999
178000,69.23076999999999
178033,69.23076999999999
178066,69.23076999999999
178100,69.23076999999999
178133,69.23076999999999
178166,69.23076999999999
178200,69.23076999999999
178233,69.23076999999999
178266,69.23076999999999
178300,69.23076999999999
178333,69.23076999999999
178366,69.23076999999999
178400,69.23076999999999
178433,69.23076999999999
178466,69.23076999999999
178500,69.23076999999999
178533,69.23076999999999
178566,69.23076999999999
178600,69.23076999999999
178633,69.23076999999999
178666,69.23076999999999
178700,69.23076999999999
178733,69.23076999999999
178766,69.23076999999999
178800,69.23076999999999
178833,69.23076999999999
178866,69.23076999999999
178900,69.23076999999999
178933,69.23076999999999
178966,69.23076999999999
179000,69.23076999999999
179033,69.23076999999999
179066,69.23076999999999
179100,69.23076999999999
179133,69.23076999999999
179166,69.23076999999999
179200,69.23076999999999
179233,69.23076999999999
179266,69.23076999999999
179300,69.23076999999999
179333,69.23076999999999
179366,69.23076999999999
179400,69.23076999999999
179433,69.23076999999999
179466,69.23076999999999
179500,69.23076999999999
179533,69.23076999999999
179566,69.23076999999999
179600,69.23076999999999
179633,69.23076999999999
179666,69.23076999999999
179700,69.23076999999999
179733,69.23076999999999
179766,69.23076999999999
179800,69.23076999999999
179833,69.23076999999999
179866,69.23076999999999
179900,69.23076999999999
179933,69.23076999999999
179966,69.23076999999999
180000,69.23076999999999
180033,69.23076999999999
180066,69.23076999999999
180100,69.23076999999999
180133,69.23076999999999
180166,69.23076999999999
