Time[ms],HR[bpm]
833,50.0
867,50.0
900,50.27933
933,52.94118
967,52.94118
1000,52.94118
1033,52.94118
1067,52.94118
1100,52.94118
1133,52.94118
1167,52.94118
1200,52.94118
1233,52.94118
1267,52.94118
1300,52.94118
1333,52.94118
1367,52.94118
1400,51.13636
1433,51.13636
1467,51.13636
1500,51.13636
1533,51.13636
1567,51.13636
1600,51.13636
1633,51.13636
1667,51.13636
1700,51.13636
1733,51.13636
1767,51.13636
1800,51.13636
1833,51.13636
1867,51.13636
1900,51.13636
1933,51.13636
1967,51.13636
2000,51.13636
2033,51.13636
2067,51.13636
2100,51.13636
2133,51.13636
2167,51.13636
2200,51.13636
2233,51.13636
2267,51.13636
2300,51.13636
2333,51.13636
2367,48.97959
2400,50.84746
2433,50.84746
2467,50.84746
2500,50.84746
2533,50.84746
2567,50.84746
2600,50.84746
2633,50.84746
2667,50.84746
2700,50.84746
2733,50.84746
2767,50.84746
2800,50.84746
2833,50.84746
2867,50.84746
2900,50.84746
2933,50.84746
2967,50.84746
3000,50.84746
3033,50.84746
3067,50.84746
3100,50.84746
3133,50.84746
3167,50.84746
3200,50.84746
3233,50.84746
3267,50.84746
3300,50.84746
3333,51.06383
3367,51.06383
3400,51.06383
3433,51.06383
3467,51.06383
3500,51.06383
3533,51.06383
3567,51.06383
3600,51.06383
3633,51.06383
3667,51.06383
3700,51.06383
3733,51.06383
3767,51.06383
3800,49.18033
3833,49.18033
3867,49.18033
3900,49.18033
3933,49.18033
3967,49.18033
4000,49.18033
4033,49.18033
4067,49.18033
4100,49.18033
4133,49.18033
4167,49.18033
4200,49.18033
4233,49.18033
4267,49.18033
4300,49.18033
4333,49.18033
4367,49.18033
4400,49.18033
4433,49.18033
4467,49.18033
4500,49.18033
4533,49.65517
4567,49.65517
4600,49.65517
4633,49.65517
4667,49.65517
4700,49.65517
4733,49.65517
4767,49.65517
4800,49.65517
4833,49.65517
4867,49.65517
4900,49.65517
4933,49.65517
4967,49.65517
5000,49.65517
5033,49.65517
5067,49.65517
5100,49.65517
5133,49.65517
5167,49.65517
5200,49.65517
5233,49.65517
5267,49.65517
5300,49.65517
5333,47.12042
5367,46.875
5400,46.875
5433,46.875
5467,46.875
5500,46.875
5533,46.875
5567,46.875
5600,46.875
5633,46.875
5667,46.875
5700,46.875
5733,46.875
5767,45.28302
5800,45.28302
5833,45.28302
5867,45.28302
5900,45.28302
5933,45.28302
5967,45.28302
6000,45.28302
6033,45.28302
6067,45.28302
6100,45.28302
6133,45.28302
6167,45.28302
6200,45.28302
6233,45.28302
6267,45.28302
6300,45.28302
6333,47.87234
6367,47.87234
6400,47.87234
6433,47.87234
6467,47.61905
6500,47.61905
6533,47.61905
6567,47.61905
6600,47.61905
6633,47.61905
6667,47.61905
6700,47.61905
6733,47.61905
6767,47.61905
6800,47.61905
6833,47.61905
6867,47.61905
6900,48.32215
6933,48.32215
6967,48.32215
7000,48.32215
7033,48.32215
7067,48.32215
7100,48.32215
7133,48.32215
7167,48.32215
7200,48.32215
7233,48.32215
7267,48.32215
7300,48.32215
7333,48.32215
7367,48.32215
7400,48.32215
7433,49.72376
7467,49.72376
7500,49.72376
7533,49.72376
7567,49.72376
7600,49.72376
7633,49.72376
7667,49.72376
7700,49.72376
7733,49.72376
7767,49.72376
7800,49.72376
7833,49.72376
7867,49.72376
7900,49.72376
7933,49.72376
7967,49.72376
8000,49.72376
8033,49.72376
8067,49.72376
8100,49.72376
8133,49.72376
8167,49.72376
8200,49.72376
8233,47.68212
8267,47.68212
8300,47.68212
8333,47.68212
8367,47.68212
8400,47.68212
8433,47.68212
8467,47.68212
8500,47.68212
8533,47.68212
8567,47.68212
8600,50.0
8633,50.0
8667,50.0
8700,50.0
8733,50.0
8767,50.0
8800,50.0
8833,50.0
8867,47.68212
8900,47.68212
8933,47.68212
8967,47.68212
9000,45.45454
9033,45.45454
9067,45.45454
9100,45.45454
9133,45.45454
9167,45.45454
9200,45.45454
9233,46.15385
9267,46.15385
9300,46.15385
9333,46.15385
9367,46.15385
9400,46.15385
9433,46.15385
9467,46.15385
9500,46.15385
9533,46.15385
9567,46.15385
9600,46.15385
9633,46.15385
9667,46.15385
9700,46.15385
9733,46.15385
9767,46.15385
9800,46.15385
9833,46.15385
9867,46.15385
9900,46.15385
9933,46.15385
9967,46.15385
10000,46.15385
10033,46.15385
10067,46.15385
10100,46.15385
10133,46.15385
10167,46.15385
10200,46.15385
10233,46.15385
10267,46.15385
10300,46.15385
10333,46.15385
10367,46.15385
10400,45.45454
10433,45.45454
10467,45.45454
10500,45.45454
10533,45.45454
10567,45.45454
10600,45.45454
10633,47.36842
10667,47.36842
10700,47.36842
10733,47.36842
10767,47.36842
10800,47.36842
10833,47.36842
10867,47.36842
10900,47.36842
10933,47.36842
10967,47.36842
11000,47.36842
11033,47.36842
11067,47.36842
11100,47.36842
11133,47.36842
11167,47.36842
11200,47.36842
11233,50.84746
11267,50.84746
11300,50.84746
11333,50.84746
11367,50.84746
11400,50.84746
11433,50.84746
11467,50.84746
11500,50.84746
11533,50.84746
11567,50.84746
11600,50.84746
11633,50.84746
11667,50.84746
11700,50.84746
11733,50.84746
11767,50.84746
11800,50.84746
11833,50.84746
11867,50.84746
11900,50.84746
11933,50.84746
11967,50.84746
12000,50.84746
12033,53.73134
12067,53.73134
12100,53.73134
12133,53.73134
12167,52.94118
12200,52.94118
12233,52.94118
12267,52.94118
12300,52.94118
12333,52.94118
12367,52.94118
12400,52.94118
12433,52.94118
12467,52.94118
12500,52.94118
12533,52.94118
12567,52.94118
12600,52.94118
12633,52.94118
12667,52.94118
12700,52.94118
12733,52.94118
12767,52.94118
12800,52.94118
12833,52.94118
12867,52.94118
12900,52.94118
12933,52.94118
12967,52.94118
13000,52.94118
13033,52.94118
13067,52.94118
13100,52.94118
13133,52.94118
13167,52.94118
13200,52.17391
13233,51.72414000000001
13267,62.06896999999999
13300,62.06896999999999
13333,62.06896999999999
13367,62.06896999999999
13400,62.06896999999999
13433,62.06896999999999
13467,62.06896999999999
13500,62.06896999999999
13533,62.06896999999999
13567,62.06896999999999
13600,62.06896999999999
13633,62.06896999999999
13667,62.06896999999999
13700,62.06896999999999
13733,62.06896999999999
13767,62.06896999999999
13800,62.06896999999999
13833,62.06896999999999
13867,62.06896999999999
13900,62.06896999999999
13933,62.06896999999999
13967,62.06896999999999
14000,62.06896999999999
14033,62.06896999999999
14067,62.06896999999999
14100,62.06896999999999
14133,62.06896999999999
14167,62.06896999999999
14200,62.06896999999999
14233,62.06896999999999
14267,61.36364
14300,61.36364
14333,61.36364
14367,61.36364
14400,61.36364
14433,61.36364
14467,61.36364
14500,61.36364
14533,61.36364
14567,61.36364
14600,61.36364
14633,61.36364
14667,61.36364
14700,61.36364
14733,61.36364
14767,65.96859
14800,61.36364
14833,61.36364
14867,61.36364
14900,61.36364
14933,61.36364
14967,61.36364
15000,61.36364
15033,61.36364
15067,63.0
15100,63.0
15133,63.0
15167,63.0
15200,59.34066
15233,59.34066
15267,59.34066
15300,59.34066
15333,59.34066
15367,59.34066
15400,59.34066
15433,59.34066
15467,59.34066
15500,59.34066
15533,60.0
15567,60.0
15600,60.0
15633,60.0
15667,60.33519
15700,60.33519
15733,63.31658
15767,72.36180999999998
15800,72.36180999999998
15833,72.36180999999998
15867,72.72726999999998
15900,72.72726999999998
15933,72.72726999999998
15967,82.23351
16000,90.0
16033,90.0
16067,90.0
16100,90.0
16133,90.0
16167,90.0
16200,90.0
16233,90.0
16267,90.0
16300,90.0
16333,90.0
16367,90.50279
16400,90.50279
16433,90.50279
16467,90.50279
16500,90.50279
16533,90.50279
16567,90.50279
16600,90.50279
16633,90.50279
16667,90.50279
16700,90.50279
16733,90.50279
16767,90.50279
16800,90.50279
16833,90.50279
16867,90.50279
16900,90.50279
16933,90.50279
16967,91.37056
17000,91.37056
17033,91.37056
17067,91.37056
17100,91.37056
17133,91.37056
17167,91.37056
17200,91.37056
17233,92.57143
17267,92.57143
17300,92.57143
17333,92.57143
17367,92.57143
17400,92.57143
17433,92.57143
17467,92.57143
17500,92.57143
17533,92.04546
17567,92.04546
17600,92.30769
17633,92.30769
17667,92.30769
17700,92.30769
17733,92.30769
17767,92.30769
17800,92.30769
17833,92.30769
17867,92.30769
17900,92.30769
17933,97.59036
17967,97.59036
18000,97.59036
18033,97.59036
18067,97.59036
18100,97.59036
18133,97.59036
18167,97.59036
18200,98.18182
18233,98.18182
18267,98.18182
18300,98.18182
18333,87.27273000000002
18367,87.27273000000002
18400,87.27273000000002
18433,87.27273000000002
18467,87.27273000000002
18500,87.27273000000002
18533,86.74699
18567,86.74699
18600,86.74699
18633,86.74699
18667,86.74699
18700,86.74699
18733,82.28571
18767,82.28571
18800,82.28571
18833,82.28571
18867,82.28571
18900,82.28571
18933,82.89474
18967,82.89474
19000,82.89474
19033,82.89474
19067,82.89474
19100,82.89474
19133,82.89474
19167,82.89474
19200,82.89474
19233,82.89474
19267,82.89474
19300,82.89474
19333,82.89474
19367,82.89474
19400,82.89474
19433,82.89474
19467,82.89474
19500,82.89474
19533,82.89474
19567,82.89474
19600,82.89474
19633,82.89474
19667,82.89474
19700,80.59702
19733,80.59702
19767,80.59702
19800,80.59702
19833,66.66666
19867,66.66666
19900,66.66666
19933,66.66666
19967,66.66666
20000,66.66666
20033,66.66666
20067,66.66666
20100,66.66666
20133,66.66666
20167,66.66666
20200,66.66666
20233,66.66666
20267,66.66666
20300,63.905330000000006
20333,63.905330000000006
20367,63.905330000000006
20400,63.905330000000006
20433,63.905330000000006
20467,63.905330000000006
20500,63.905330000000006
20533,53.25444
20567,53.25444
20600,53.25444
20633,53.25444
20667,53.25444
20700,53.25444
20733,53.25444
20767,53.57143000000001
20800,53.57143000000001
20833,53.57143000000001
20867,53.57143000000001
20900,53.57143000000001
20933,53.57143000000001
20967,52.94118
21000,50.27933
21033,50.27933
21067,50.27933
21100,50.27933
21133,50.27933
21167,50.27933
21200,50.27933
21233,50.27933
21267,50.27933
21300,50.27933
21333,50.27933
21367,48.91304
21400,48.91304
21433,48.91304
21467,48.91304
21500,48.91304
21533,48.91304
21567,48.91304
21600,48.91304
21633,48.3871
21667,48.3871
21700,48.3871
21733,48.3871
21767,48.3871
21800,58.06452
21833,58.06452
21867,54.87805
21900,58.69565
21933,58.69565
21967,58.69565
22000,58.69565
22033,58.69565
22067,58.69565
22100,58.69565
22133,58.69565
22167,58.69565
22200,58.69565
22233,58.69565
22267,58.69565
22300,58.69565
22333,58.69565
22367,58.69565
22400,68.47825999999999
22433,68.47825999999999
22467,71.64179
22500,71.64179
22533,71.64179
22567,71.64179
22600,68.10811
22633,68.10811
22667,68.10811
22700,68.10811
22733,68.10811
22767,68.10811
22800,68.10811
22833,68.10811
22867,68.10811
22900,68.47825999999999
22933,68.47825999999999
22967,68.47825999999999
23000,68.47825999999999
23033,68.47825999999999
23067,71.28713
23100,71.28713
23133,71.28713
23167,68.85246
23200,68.47825999999999
23233,78.26087
23267,68.10811
23300,68.10811
23333,67.74194
23367,67.74194
23400,67.74194
23433,67.74194
23467,67.74194
23500,67.74194
23533,67.74194
23567,67.74194
23600,67.74194
23633,67.74194
23667,67.74194
23700,67.74194
23733,67.74194
23767,67.74194
23800,71.52318000000002
23833,71.52318000000002
23867,71.52318000000002
23900,71.52318000000002
23933,71.52318000000002
23967,71.52318000000002
24000,71.52318000000002
24033,71.52318000000002
24067,71.52318000000002
24100,70.39106
24133,70.39106
24167,70.39106
24200,70.39106
24233,70.39106
24267,70.39106
24300,70.39106
24333,70.39106
24367,70.39106
24400,70.39106
24433,70.39106
24467,70.39106
24500,70.39106
24533,70.39106
24567,60.33519
24600,50.27933
24633,50.27933
24667,60.33519
24700,70.39106
24733,60.0
24767,60.0
24800,60.0
24833,60.0
24867,60.0
24900,60.0
24933,60.0
24967,61.22449
25000,55.81395
25033,55.81395
25067,55.81395
25100,56.60378000000001
25133,56.60378000000001
25167,56.60378000000001
25200,56.60378000000001
25233,56.60378000000001
25267,56.60378000000001
25300,56.60378000000001
25333,56.60378000000001
25367,56.60378000000001
25400,56.60378000000001
25433,56.60378000000001
25467,56.60378000000001
25500,56.60378000000001
25533,56.60378000000001
25567,56.60378000000001
25600,56.60378000000001
25633,56.60378000000001
25667,56.60378000000001
25700,56.60378000000001
25733,56.60378000000001
25767,56.60378000000001
25800,56.60378000000001
25833,56.60378000000001
25867,56.60378000000001
25900,56.60378000000001
25933,56.60378000000001
25967,56.60378000000001
26000,56.60378000000001
26033,57.75401
26067,57.75401
26100,57.75401
26133,57.75401
26167,57.75401
26200,57.75401
26233,57.75401
26267,57.75401
26300,57.75401
26333,57.75401
26367,57.75401
26400,57.75401
26433,57.75401
26467,57.75401
26500,57.75401
26533,57.75401
26567,57.75401
26600,57.75401
26633,60.40268
26667,60.40268
26700,60.40268
26733,60.40268
26767,60.40268
26800,60.40268
26833,60.40268
26867,60.40268
26900,60.40268
26933,61.36364
26967,60.40268
27000,60.40268
27033,60.40268
27067,60.40268
27100,60.40268
27133,60.40268
27167,60.40268
27200,60.40268
27233,60.40268
27267,60.40268
27300,60.40268
27333,60.40268
27367,60.40268
27400,60.40268
27433,60.40268
27467,60.40268
27500,60.40268
27533,55.6701
27567,55.6701
27600,55.6701
27633,55.6701
27667,55.6701
27700,55.6701
27733,55.6701
27767,55.6701
27800,55.6701
27833,55.6701
27867,55.6701
27900,56.96202
27933,56.96202
27967,56.96202
28000,56.96202
28033,56.96202
28067,56.96202
28100,56.96202
28133,56.96202
28167,56.96202
28200,56.96202
28233,56.96202
28267,56.96202
28300,56.96202
28333,56.96202
28367,56.96202
28400,56.96202
28433,56.96202
28467,56.96202
28500,56.96202
28533,56.96202
28567,56.96202
28600,56.96202
28633,56.96202
28667,56.5445
28700,56.5445
28733,56.96202
28767,55.38462
28800,55.38462
28833,55.38462
28867,55.38462
28900,55.38462
28933,55.38462
28967,55.6701
29000,55.6701
29033,55.6701
29067,55.6701
29100,54.21686999999999
29133,54.21686999999999
29167,54.21686999999999
29200,54.21686999999999
29233,54.21686999999999
29267,54.21686999999999
29300,54.21686999999999
29333,54.21686999999999
29367,54.21686999999999
29400,54.21686999999999
29433,54.21686999999999
29467,54.21686999999999
29500,54.21686999999999
29533,54.21686999999999
29567,54.21686999999999
29600,54.21686999999999
29633,54.21686999999999
29667,54.21686999999999
29700,54.21686999999999
29733,54.21686999999999
29767,54.21686999999999
29800,54.54546
29833,54.54546
29867,54.54546
29900,54.54546
29933,54.54546
29967,54.54546
30000,54.54546
30033,52.63158000000001
30067,52.63158000000001
30100,52.63158000000001
30133,52.63158000000001
30167,52.63158000000001
30200,52.63158000000001
30233,52.63158000000001
30267,52.63158000000001
30300,52.63158000000001
30333,52.63158000000001
30367,52.63158000000001
30400,52.63158000000001
30433,52.63158000000001
30467,52.63158000000001
30500,52.63158000000001
30533,52.63158000000001
30567,52.63158000000001
30600,52.63158000000001
30633,52.63158000000001
30667,52.63158000000001
30700,52.63158000000001
30733,52.63158000000001
30767,52.63158000000001
30800,53.73134
30833,53.73134
30867,53.73134
30900,53.73134
30933,52.63158000000001
30967,52.63158000000001
31000,52.63158000000001
31033,52.63158000000001
31067,52.63158000000001
31100,52.63158000000001
31133,52.63158000000001
31167,52.63158000000001
31200,52.63158000000001
31233,52.63158000000001
31267,52.63158000000001
31300,52.63158000000001
31333,52.63158000000001
31367,52.63158000000001
31400,52.63158000000001
31433,52.63158000000001
31467,52.63158000000001
31500,52.63158000000001
31533,52.63158000000001
31567,52.63158000000001
31600,52.63158000000001
31633,52.63158000000001
31667,52.63158000000001
31700,52.63158000000001
31733,52.63158000000001
31767,52.63158000000001
31800,52.63158000000001
31833,52.63158000000001
31867,52.63158000000001
31900,52.63158000000001
31933,50.34965
31967,50.34965
32000,50.34965
32033,50.34965
32067,50.34965
32100,50.34965
32133,50.34965
32167,50.34965
32200,50.34965
32233,48.3871
32267,48.3871
32300,48.3871
32333,48.3871
32367,48.3871
32400,48.3871
32433,48.3871
32467,48.3871
32500,48.3871
32533,48.3871
32567,48.3871
32600,48.3871
32633,48.3871
32667,48.3871
32700,48.3871
32733,48.3871
32767,48.3871
32800,48.3871
32833,48.3871
32867,51.06383
32900,51.06383
32933,51.06383
32967,51.06383
33000,51.06383
33033,51.06383
33067,51.06383
33100,53.89222
33133,51.06383
33167,53.25444
33200,53.25444
33233,53.25444
33267,53.25444
33300,53.25444
33333,53.25444
33367,53.25444
33400,53.25444
33433,53.25444
33467,53.25444
33500,53.25444
33533,53.25444
33567,53.25444
33600,53.25444
33633,53.25444
33667,53.25444
33700,53.25444
33733,53.25444
33767,53.25444
33800,53.25444
33833,53.25444
33867,53.25444
33900,53.25444
33933,53.25444
33967,53.25444
34000,53.25444
34033,53.25444
34067,53.25444
34100,53.25444
34133,53.25444
34167,53.25444
34200,54.0
34233,54.27136
34267,54.27136
34300,54.27136
34333,54.27136
34367,55.55556
34400,55.55556
34433,55.55556
34467,55.21473
34500,55.21473
34533,55.21473
34567,55.21473
34600,55.21473
34633,55.21473
34667,55.21473
34700,55.21473
34733,55.21473
34767,55.21473
34800,55.21473
34833,55.21473
34867,55.21473
34900,55.21473
34933,55.21473
34967,55.21473
35000,54.87805
35033,54.87805
35067,54.87805
35100,54.87805
35133,54.87805
35167,54.87805
35200,54.87805
35233,54.87805
35267,54.87805
35300,54.87805
35333,54.87805
35367,54.87805
35400,54.87805
35433,54.87805
35467,54.87805
35500,54.87805
35533,54.87805
35567,54.87805
35600,53.73134
35633,53.73134
35667,53.73134
35700,53.73134
35733,53.73134
35767,50.0
35800,53.73134
35833,49.45055
35867,49.45055
35900,49.45055
35933,49.45055
35967,49.45055
36000,49.45055
36033,49.45055
36067,49.45055
36100,49.45055
36133,49.45055
36167,49.45055
36200,49.45055
36233,49.45055
36267,49.45055
36300,49.45055
36333,49.45055
36367,49.45055
36400,49.45055
36433,49.45055
36467,49.45055
36500,49.45055
36533,49.45055
36567,49.45055
36600,47.68212
36633,47.68212
36667,47.68212
36700,47.68212
36733,47.68212
36767,47.68212
36800,47.68212
36833,47.68212
36867,47.68212
36900,47.68212
36933,47.68212
36967,48.64865
37000,48.64865
37033,48.64865
37067,48.64865
37100,48.64865
37133,48.64865
37167,48.64865
37200,48.64865
37233,48.64865
37267,48.64865
37300,48.64865
37333,48.64865
37367,48.91304
37400,48.91304
37433,48.91304
37467,48.91304
37500,48.91304
37533,48.91304
37567,48.91304
37600,48.91304
37633,50.70422
37667,50.70422
37700,51.06383
37733,54.54546
37767,54.54546
37800,54.54546
37833,54.54546
37867,54.54546
37900,54.54546
37933,54.54546
37967,54.54546
38000,54.54546
38033,54.54546
38067,54.54546
38100,54.54546
38133,54.54546
38167,54.54546
38200,54.54546
38233,54.54546
38267,54.54546
38300,54.54546
38333,54.54546
38367,54.54546
38400,54.54546
38433,54.54546
38467,54.54546
38500,54.54546
38533,54.54546
38567,54.54546
38600,54.54546
38633,54.54546
38667,54.54546
38700,54.54546
38733,54.54546
38767,54.54546
38800,54.54546
38833,54.54546
38867,54.54546
38900,54.54546
38933,54.54546
38967,54.54546
39000,54.54546
39033,54.54546
39067,52.55474
39100,52.55474
39133,52.55474
39167,52.55474
39200,54.21686999999999
39233,54.21686999999999
39267,54.21686999999999
39300,54.21686999999999
39333,54.21686999999999
39367,54.21686999999999
39400,54.21686999999999
39433,54.21686999999999
39467,54.21686999999999
39500,47.36842
39533,47.36842
39567,47.36842
39600,47.36842
39633,47.36842
39667,47.36842
39700,47.36842
39733,47.36842
39767,47.36842
39800,47.36842
39833,47.12042
39867,47.12042
39900,47.12042
39933,47.12042
39967,45.56962
40000,45.56962
40033,45.56962
40067,45.56962
40100,45.56962
40133,45.56962
40167,45.56962
40200,45.56962
40233,45.56962
40267,45.56962
40300,45.56962
40333,45.56962
40367,45.56962
40400,45.56962
40433,48.3871
40467,48.3871
40500,48.3871
40533,48.3871
40567,48.3871
40600,48.3871
40633,48.3871
40667,48.3871
40700,48.3871
40733,48.64865
40767,48.64865
40800,48.64865
40833,48.64865
40867,48.64865
40900,48.64865
40933,48.64865
40967,48.64865
41000,48.64865
41033,48.64865
41067,52.94118
41100,52.94118
41133,52.94118
41167,56.25
41200,56.25
41233,56.25
41267,56.25
41300,55.90062
41333,55.90062
41367,55.90062
41400,55.90062
41433,55.90062
41467,55.90062
41500,55.90062
41533,55.90062
41567,55.90062
41600,55.90062
41633,55.90062
41667,55.90062
41700,55.90062
41733,55.90062
41767,55.90062
41800,55.90062
41833,55.90062
41867,55.90062
41900,55.90062
41933,55.90062
41967,55.90062
42000,55.90062
42033,55.90062
42067,55.90062
42100,57.44681
42133,57.44681
42167,57.44681
42200,57.44681
42233,57.44681
42267,57.44681
42300,57.44681
42333,57.44681
42367,57.44681
42400,57.44681
42433,57.44681
42467,57.44681
42500,57.44681
42533,57.44681
42567,57.44681
42600,57.44681
42633,57.44681
42667,58.06452
42700,58.06452
42733,58.06452
42767,58.06452
42800,58.06452
42833,57.69231
42867,57.69231
42900,57.69231
42933,57.69231
42967,57.69231
43000,57.69231
43033,57.69231
43067,57.69231
43100,60.0
43133,59.66851
43167,59.66851
43200,59.66851
43233,59.66851
43267,60.0
43300,59.66851
43333,59.66851
43367,59.66851
43400,59.66851
43433,59.66851
43467,59.66851
43500,59.66851
43533,59.66851
43567,59.66851
43600,62.68657
43633,62.68657
43667,62.37624
43700,61.36364
43733,61.36364
43767,61.36364
43800,61.36364
43833,61.36364
43867,61.36364
43900,61.36364
43933,61.71429000000001
43967,61.71429000000001
44000,61.71429000000001
44033,61.71429000000001
44067,61.71429000000001
44100,61.71429000000001
44133,61.71429000000001
44167,61.71429000000001
44200,65.28497
44233,65.28497
44267,65.28497
44300,65.28497
44333,65.28497
44367,74.6114
44400,74.6114
44433,74.6114
44467,74.6114
44500,74.6114
44533,74.6114
44567,74.6114
44600,74.11765
44633,74.11765
44667,74.11765
44700,74.11765
44733,74.11765
44767,74.11765
44800,76.19048000000002
44833,76.19048000000002
44867,76.19048000000002
44900,76.19048000000002
44933,76.19048000000002
44967,76.19048000000002
45000,76.19048000000002
45033,76.19048000000002
45067,76.19048000000002
45100,76.19048000000002
45133,76.19048000000002
45167,76.19048000000002
45200,76.19048000000002
45233,76.19048000000002
45267,76.19048000000002
45300,76.19048000000002
45333,81.29032
45367,81.29032
45400,81.29032
45433,81.29032
45467,81.29032
45500,81.29032
45533,81.29032
45567,81.29032
45600,81.29032
45633,81.81818
45667,81.81818
45700,81.81818
45733,81.81818
45767,81.81818
45800,81.81818
45833,81.81818
45867,81.81818
45900,81.81818
45933,81.81818
45967,81.81818
46000,81.81818
46033,81.81818
46067,83.93782
46100,83.93782
46133,83.93782
46167,83.93782
46200,83.93782
46233,83.93782
46267,83.93782
46300,83.93782
46333,83.93782
46367,83.93782
46400,83.93782
46433,83.93782
46467,83.72093000000002
46500,83.72093000000002
46533,83.72093000000002
46567,83.72093000000002
46600,83.72093000000002
46633,83.72093000000002
46667,85.26316
46700,85.26316
46733,85.26316
46767,85.26316
46800,85.26316
46833,85.26316
46867,85.26316
46900,85.26316
46933,85.26316
46967,85.26316
47000,85.26316
47033,85.26316
47067,85.26316
47100,85.26316
47133,85.26316
47167,90.0
47200,90.0
47233,90.0
47267,90.0
47300,90.0
47333,90.0
47367,90.0
47400,89.01099
47433,89.01099
47467,89.01099
47500,89.01099
47533,89.01099
47567,89.01099
47600,89.01099
47633,89.01099
47667,89.01099
47700,89.01099
47733,89.01099
47767,89.01099
47800,89.01099
47833,89.01099
47867,89.01099
47900,89.01099
47933,89.01099
47967,89.01099
48000,89.01099
48033,89.55224
48067,89.55224
48100,89.55224
48133,89.55224
48167,88.52459
48200,88.52459
48233,88.52459
48267,88.52459
48300,88.52459
48333,88.52459
48367,88.52459
48400,88.52459
48433,88.52459
48467,88.52459
48500,88.52459
48533,88.52459
48567,88.52459
48600,88.52459
48633,88.52459
48667,88.52459
48700,88.66995
48733,88.66995
48767,93.64162
48800,93.64162
48833,93.64162
48867,93.64162
48900,93.64162
48933,93.64162
48967,93.64162
49000,93.64162
49033,93.64162
49067,93.64162
49100,93.64162
49133,93.64162
49167,93.64162
49200,93.64162
49233,93.64162
49267,93.64162
49300,93.64162
49333,93.64162
49367,93.26425
49400,93.26425
49433,93.26425
49467,93.26425
49500,93.26425
49533,93.26425
49567,93.26425
49600,93.26425
49633,93.26425
49667,93.26425
49700,93.26425
49733,93.26425
49767,93.10345
49800,93.10345
49833,93.10345
49867,93.10345
49900,93.10345
49933,94.24084
49967,94.24084
50000,93.10345
50033,92.78351
50067,92.78351
50100,92.78351
50133,92.78351
50167,92.78351
50200,92.78351
50233,92.78351
50267,92.78351
50300,92.78351
50333,92.78351
50367,83.50516
50400,82.28571
50433,82.28571
50467,82.28571
50500,82.28571
50533,82.28571
50567,82.28571
50600,82.28571
50633,82.28571
50667,82.28571
50700,83.07692
50733,83.07692
50767,83.07692
50800,83.07692
50833,83.07692
50867,83.07692
50900,83.07692
50933,83.07692
50967,82.65306
51000,82.65306
51033,81.35593
51067,78.26087
51100,78.26087
51133,78.26087
51167,78.26087
51200,80.89888
51233,80.89888
51267,80.89888
51300,80.89888
51333,81.35593
51367,81.35593
51400,81.35593
51433,81.35593
51467,81.35593
51500,81.35593
51533,81.81818
51567,81.81818
51600,81.81818
51633,81.81818
51667,90.64748
51700,90.64748
51733,90.64748
51767,90.64748
51800,90.64748
51833,90.64748
51867,90.64748
51900,90.64748
51933,90.64748
51967,90.64748
52000,90.64748
52033,90.64748
52067,90.64748
52100,90.64748
52133,90.64748
52167,90.64748
52200,90.0
52233,90.0
52267,90.0
52300,90.0
52333,90.0
52367,90.0
52400,90.0
52433,90.0
52467,74.6114
52500,74.6114
52533,74.6114
52567,74.6114
52600,74.6114
52633,74.6114
52667,74.6114
52700,74.6114
52733,74.6114
52767,74.6114
52800,74.6114
52833,74.6114
52867,72.4138
52900,72.4138
52933,72.4138
52967,72.4138
53000,72.4138
53033,72.4138
53067,72.4138
53100,74.6114
53133,74.6114
53167,74.6114
53200,74.6114
53233,74.6114
53267,74.6114
53300,83.93782
53333,83.93782
53367,83.93782
53400,83.93782
53433,83.93782
53467,83.93782
53500,83.23699
53533,83.23699
53567,83.23699
53600,83.23699
53633,83.23699
53667,83.23699
53700,83.23699
53733,83.23699
53767,83.23699
53800,83.50516
53833,83.50516
53867,83.50516
53900,83.50516
53933,83.50516
53967,83.50516
54000,83.50516
54033,83.50516
54067,83.50516
54100,83.50516
54133,83.50516
54167,83.23699
54200,83.23699
54233,83.23699
54267,83.23699
54300,83.23699
54333,83.23699
54367,83.23699
54400,83.23699
54433,83.23699
54467,83.23699
54500,83.23699
54533,83.23699
54567,83.23699
54600,83.23699
54633,83.23699
54667,83.23699
54700,83.23699
54733,83.23699
54767,83.23699
54800,83.93782
54833,83.93782
54867,84.21053
54900,84.21053
54933,84.21053
54967,84.21053
55000,84.21053
55033,84.21053
55067,84.21053
55100,84.21053
55133,84.21053
55167,84.21053
55200,84.21053
55233,83.50516
55267,83.50516
55300,83.50516
55333,83.50516
55367,83.50516
55400,83.50516
55433,83.50516
55467,83.50516
55500,83.50516
55533,83.50516
55567,83.50516
55600,81.81818
55633,81.81818
55667,81.81818
55700,81.81818
55733,81.81818
55767,92.04546
55800,92.04546
55833,92.04546
55867,92.04546
55900,91.83673
55933,91.83673
55967,91.83673
56000,91.83673
56033,91.83673
56067,91.83673
56100,91.83673
56133,91.83673
56167,91.83673
56200,91.52542
56233,91.52542
56267,91.52542
56300,91.52542
56333,91.52542
56367,91.52542
56400,91.52542
56433,91.52542
56467,91.52542
56500,91.52542
56533,91.83673
56567,91.83673
56600,91.83673
56633,91.83673
56667,91.83673
56700,91.83673
56733,91.83673
56767,91.83673
56800,91.83673
56833,92.04546
56867,92.04546
56900,92.04546
56933,92.04546
56967,92.04546
57000,92.04546
57033,92.04546
57067,92.04546
57100,92.04546
57133,92.04546
57167,92.04546
57200,92.04546
57233,91.37056
57267,91.37056
57300,91.37056
57333,91.37056
57367,91.37056
57400,91.37056
57433,91.37056
57467,91.37056
57500,91.01124
57533,91.01124
57567,91.01124
57600,91.01124
57633,91.01124
57667,91.01124
57700,91.01124
57733,91.01124
57767,91.01124
57800,91.01124
57833,91.83673
57867,91.83673
57900,91.83673
57933,91.83673
57967,91.83673
58000,91.83673
58033,91.83673
58067,91.83673
58100,91.83673
58133,91.52542
58167,91.52542
58200,91.52542
58233,91.52542
58267,91.52542
58300,91.52542
58333,91.52542
58367,91.52542
58400,91.52542
58433,91.52542
58467,91.52542
58500,91.37056
58533,91.37056
58567,91.37056
58600,91.37056
58633,91.37056
58667,91.37056
58700,91.37056
58733,91.37056
58767,89.50276
58800,89.50276
58833,89.50276
58867,89.50276
58900,89.50276
58933,89.50276
58967,89.50276
59000,89.50276
59033,89.50276
59067,89.50276
59100,89.50276
59133,90.0
59167,90.0
59200,90.0
59233,90.0
59267,90.0
59300,89.50276
59333,89.50276
59367,89.50276
59400,89.50276
59433,89.50276
59467,89.50276
59500,89.50276
59533,89.50276
59567,89.50276
59600,89.50276
59633,89.50276
59667,89.50276
59700,90.90909
59733,90.90909
59767,90.90909
59800,90.90909
59833,90.90909
59867,90.90909
59900,90.90909
59933,91.52542
59967,91.52542
60000,91.52542
60033,91.52542
60067,91.52542
60100,91.52542
60133,91.52542
60167,91.52542
60200,91.52542
60233,91.52542
60267,91.52542
60300,92.30769
60333,92.30769
60367,92.30769
60400,92.30769
60433,92.30769
60467,92.30769
60500,92.30769
60533,92.30769
60567,92.30769
60600,92.30769
60633,92.57143
60667,92.57143
60700,92.57143
60733,92.57143
60767,92.57143
60800,92.57143
60833,92.57143
60867,92.57143
60900,92.57143
60933,92.57143
60967,92.30769
61000,92.30769
61033,92.30769
61067,92.30769
61100,92.30769
61133,92.30769
61167,92.30769
61200,92.30769
61233,92.30769
61267,92.30769
61300,94.18604
61333,94.18604
61367,94.18604
61400,94.18604
61433,94.18604
61467,94.18604
61500,94.18604
61533,94.18604
61567,94.18604
61600,94.18604
61633,94.18604
61667,94.18604
61700,94.18604
61733,92.30769
61767,92.30769
61800,92.30769
61833,92.30769
61867,92.30769
61900,92.30769
61933,92.30769
61967,92.30769
62000,92.30769
62033,92.30769
62067,92.57143
62100,92.57143
62133,92.57143
62167,92.57143
62200,92.57143
62233,92.57143
62267,92.57143
62300,92.57143
62333,92.57143
62367,92.57143
62400,92.57143
62433,92.57143
62467,92.57143
62500,92.57143
62533,92.57143
62567,92.57143
62600,92.57143
62633,92.57143
62667,92.57143
62700,92.57143
62733,92.30769
62767,92.30769
62800,86.17021
62833,86.17021
62867,86.17021
62900,86.17021
62933,86.17021
62967,86.17021
63000,86.17021
63033,86.17021
63067,86.17021
63100,86.17021
63133,86.17021
63167,86.17021
63200,86.17021
63233,86.17021
63267,86.17021
63300,86.17021
63333,86.17021
63367,85.71429
63400,85.71429
63433,85.71429
63467,86.17021
63500,86.17021
63533,86.17021
63567,86.17021
63600,86.17021
63633,86.17021
63667,86.17021
63700,86.17021
63733,86.17021
63767,86.17021
63800,86.17021
63833,86.17021
63867,86.17021
63900,86.17021
63933,86.17021
63967,86.17021
64000,86.17021
64033,85.2071
64067,85.2071
64100,85.2071
64133,85.2071
64167,85.2071
64200,85.2071
64233,85.2071
64267,83.93782
64300,83.93782
64333,83.93782
64367,83.93782
64400,83.93782
64433,83.93782
64467,83.93782
64500,83.93782
64533,83.93782
64567,84.375
64600,84.375
64633,84.375
64667,83.23699
64700,82.75862
64733,82.75862
64767,82.75862
64800,82.75862
64833,82.75862
64867,82.75862
64900,82.75862
64933,82.75862
64967,82.75862
65000,82.75862
65033,82.75862
65067,82.75862
65100,82.75862
65133,83.72093000000002
65167,83.72093000000002
65200,84.21053
65233,84.21053
65267,84.21053
65300,81.81818
65333,76.59574
65367,76.59574
65400,76.59574
65433,76.59574
65467,76.59574
65500,76.59574
65533,76.59574
65567,76.59574
65600,76.59574
65633,76.59574
65667,76.59574
65700,76.59574
65733,76.59574
65767,76.59574
65800,76.59574
65833,76.59574
65867,76.59574
65900,74.55621
65933,74.55621
65967,63.905330000000006
66000,63.905330000000006
66033,63.905330000000006
66067,63.905330000000006
66100,63.905330000000006
66133,63.905330000000006
66167,63.905330000000006
66200,63.905330000000006
66233,63.905330000000006
66267,63.905330000000006
66300,63.905330000000006
66333,63.905330000000006
66367,63.31658
66400,63.31658
66433,63.0
66467,63.0
66500,63.0
66533,59.34066
66567,59.34066
66600,59.34066
66633,59.34066
66667,59.34066
66700,59.34066
66733,59.34066
66767,59.34066
66800,59.34066
66833,59.34066
66867,59.34066
66900,59.34066
66933,59.34066
66967,59.34066
67000,59.34066
67033,59.34066
67067,59.34066
67100,55.55556
67133,55.55556
67167,55.55556
67200,55.55556
67233,55.55556
67267,57.14286
67300,57.14286
67333,57.14286
67367,57.14286
67400,57.14286
67433,57.14286
67467,57.14286
67500,57.14286
67533,57.14286
67567,57.14286
67600,57.14286
67633,57.14286
67667,57.14286
67700,57.14286
67733,57.14286
67767,57.14286
67800,54.54546
67833,54.54546
67867,54.54546
67900,54.54546
67933,54.54546
67967,54.54546
68000,54.54546
68033,54.54546
68067,54.54546
68100,54.54546
68133,54.54546
68167,54.54546
68200,54.54546
68233,55.6701
68267,54.54546
68300,54.54546
68333,54.82233000000001
68367,54.82233000000001
68400,54.82233000000001
68433,55.10204
68467,55.10204
68500,55.10204
68533,55.10204
68567,55.10204
68600,54.21686999999999
68633,54.21686999999999
68667,54.21686999999999
68700,53.89222
68733,53.89222
68767,53.89222
68800,53.89222
68833,53.89222
68867,53.89222
68900,53.89222
68933,53.89222
68967,53.89222
69000,53.89222
69033,53.89222
69067,53.89222
69100,53.89222
69133,53.89222
69167,53.89222
69200,53.89222
69233,53.89222
69267,53.89222
69300,53.89222
69333,53.89222
69367,53.89222
69400,53.89222
69433,53.89222
69467,53.73134
69500,53.73134
69533,53.73134
69567,53.73134
69600,57.32484
69633,57.32484
69667,56.96202
69700,56.96202
69733,56.96202
69767,56.96202
69800,56.96202
69833,56.96202
69867,56.96202
69900,56.96202
69933,56.96202
69967,56.96202
70000,56.96202
70033,56.96202
70067,56.96202
70100,56.96202
70133,56.96202
70167,56.96202
70200,56.96202
70233,56.96202
70267,56.96202
70300,56.96202
70333,56.96202
70367,56.96202
70400,56.96202
70433,56.96202
70467,56.96202
70500,56.96202
70533,56.96202
70567,56.96202
70600,56.96202
70633,56.96202
70667,56.96202
70700,56.96202
70733,56.96202
70767,56.96202
70800,56.96202
70833,56.96202
70867,56.96202
70900,56.96202
70933,56.96202
70967,56.96202
71000,56.96202
71033,58.06452
71067,58.06452
71100,57.69231
71133,57.69231
71167,57.69231
71200,57.69231
71233,57.69231
71267,57.69231
71300,57.69231
71333,57.69231
71367,57.69231
71400,57.69231
71433,57.69231
71467,57.69231
71500,57.69231
71533,57.69231
71567,57.69231
71600,57.69231
71633,57.69231
71667,57.69231
71700,57.69231
71733,57.69231
71767,57.69231
71800,57.69231
71833,57.69231
71867,57.69231
71900,57.69231
71933,57.69231
71967,57.69231
72000,57.69231
72033,57.69231
72067,57.69231
72100,53.20197
72133,53.46535
72167,52.63158000000001
72200,52.63158000000001
72233,52.63158000000001
72267,52.63158000000001
72300,52.63158000000001
72333,52.63158000000001
72367,52.63158000000001
72400,52.63158000000001
72433,52.63158000000001
72467,52.63158000000001
72500,52.63158000000001
72533,52.63158000000001
72567,52.63158000000001
72600,52.63158000000001
72633,52.63158000000001
72667,52.63158000000001
72700,52.63158000000001
72733,52.63158000000001
72767,52.63158000000001
72800,52.63158000000001
72833,52.63158000000001
72867,52.63158000000001
72900,52.63158000000001
72933,52.63158000000001
72967,52.63158000000001
73000,52.63158000000001
73033,52.63158000000001
73067,52.63158000000001
73100,52.63158000000001
73133,63.15789
73167,63.15789
73200,62.5
73233,62.5
73267,62.5
73300,62.5
73333,59.66851
73367,59.66851
73400,59.66851
73433,59.66851
73467,59.66851
73500,59.66851
73533,59.66851
73567,59.66851
73600,59.66851
73633,59.66851
73667,59.66851
73700,59.66851
73733,59.66851
73767,59.66851
73800,59.66851
73833,59.66851
73867,59.66851
73900,59.66851
73933,59.66851
73967,59.66851
74000,59.66851
74033,59.66851
74067,59.66851
74100,60.40268
74133,60.40268
74167,60.40268
74200,48.32215
74233,48.32215
74267,48.32215
74300,50.27933
74333,50.5618
74367,50.5618
74400,50.27933
74433,50.27933
74467,50.27933
74500,50.27933
74533,50.27933
74567,50.27933
74600,50.27933
74633,50.27933
74667,50.27933
74700,50.27933
74733,50.27933
74767,50.27933
74800,50.27933
74833,50.27933
74867,50.27933
74900,50.27933
74933,50.27933
74967,50.27933
75000,50.27933
75033,50.27933
75067,50.27933
75100,50.27933
75133,50.27933
75167,49.65517
75200,49.65517
75233,49.65517
75267,49.65517
75300,49.65517
75333,49.65517
75367,49.65517
75400,49.65517
75433,49.65517
75467,49.65517
75500,49.65517
75533,49.65517
75567,49.65517
75600,48.91304
75633,48.91304
75667,48.91304
75700,48.91304
75733,48.91304
75767,48.91304
75800,48.91304
75833,48.91304
75867,48.91304
75900,48.91304
75933,48.91304
75967,48.91304
76000,48.91304
76033,48.91304
76067,48.91304
76100,48.91304
76133,48.91304
76167,48.91304
76200,48.91304
76233,48.91304
76267,48.91304
76300,47.36842
76333,47.36842
76367,51.42857
76400,51.42857
76433,51.42857
76467,51.42857
76500,51.42857
76533,51.42857
76567,51.42857
76600,51.42857
76633,51.42857
76667,51.42857
76700,51.42857
76733,51.72414000000001
76767,51.72414000000001
76800,51.72414000000001
76833,51.72414000000001
76867,51.72414000000001
76900,51.72414000000001
76933,51.72414000000001
76967,51.72414000000001
77000,51.72414000000001
77033,52.63158000000001
77067,52.63158000000001
77100,52.94118
77133,55.38462
77167,55.38462
77200,55.38462
77233,55.38462
77267,55.38462
77300,55.38462
77333,55.38462
77367,55.38462
77400,55.38462
77433,55.38462
77467,59.21053000000001
77500,59.21053000000001
77533,59.21053000000001
77567,59.21053000000001
77600,59.21053000000001
77633,59.21053000000001
77667,64.28571
77700,64.28571
77733,64.28571
77767,64.28571
77800,64.28571
77833,64.28571
77867,64.28571
77900,64.28571
77933,64.28571
77967,64.28571
78000,64.28571
78033,64.28571
78067,64.28571
78100,64.28571
78133,64.28571
78167,68.85246
78200,68.85246
78233,68.85246
78267,68.85246
78300,68.85246
78333,68.85246
78367,68.85246
78400,68.85246
78433,68.85246
78467,68.85246
78500,68.85246
78533,78.68852
78567,78.68852
78600,78.26087
78633,78.26087
78667,81.40704000000002
78700,81.40704000000002
78733,81.40704000000002
78767,81.40704000000002
78800,81.40704000000002
78833,81.40704000000002
78867,90.0
78900,90.0
78933,90.0
78967,90.0
79000,90.0
79033,90.0
79067,90.0
79100,90.0
79133,90.0
79167,90.0
79200,90.0
79233,90.0
79267,90.0
79300,90.0
79333,92.57143
79367,92.57143
79400,92.57143
79433,95.74468
79467,95.74468
79500,95.74468
79533,95.74468
79567,95.74468
79600,95.74468
79633,95.74468
79667,95.74468
79700,95.74468
79733,95.74468
79767,95.74468
79800,95.74468
79833,95.74468
79867,95.74468
79900,95.74468
79933,95.74468
79967,95.74468
80000,95.74468
80033,95.74468
80067,95.74468
80100,97.53695
80133,97.53695
80167,105.8824
80200,105.8824
80233,105.8824
80267,105.8824
80300,105.8824
80333,105.8824
80367,105.8824
80400,105.8824
80433,105.8824
80467,105.8824
80500,105.8824
80533,105.8824
80567,105.8824
80600,105.8824
80633,106.4516
80667,106.4516
80700,106.4516
80733,106.4516
80767,106.4516
80800,106.4516
80833,106.4516
80867,106.4516
80900,106.4516
80933,106.4516
80967,106.4516
81000,106.4516
81033,106.4516
81067,106.4516
81100,106.4516
81133,107.4627
81167,107.4627
81200,107.4627
81233,107.4627
81267,107.6087
81300,107.6087
81333,107.6087
81367,107.6087
81400,107.6087
81433,107.6087
81467,107.6087
81500,107.6087
81533,107.6087
81567,107.6087
81600,109.0909
81633,109.0909
81667,109.0909
81700,109.0909
81733,109.0909
81767,109.0909
81800,109.0909
81833,109.3923
81867,109.3923
81900,109.3923
81933,109.3923
81967,109.3923
82000,109.3923
82033,109.3923
82067,109.3923
82100,109.3923
82133,109.3923
82167,109.3923
82200,110.2041
82233,110.2041
82267,110.2041
82300,110.2041
82333,110.2041
82367,110.2041
82400,108.1967
82433,108.1967
82467,108.1967
82500,108.1967
82533,108.1967
82567,108.1967
82600,108.1967
82633,109.6447
82667,109.6447
82700,109.6447
82733,109.6447
82767,109.6447
82800,109.6447
82833,121.4724
82867,121.4724
82900,121.4724
82933,121.4724
82967,121.4724
83000,121.4724
83033,122.0339
83067,122.0339
83100,122.0339
83133,122.0339
83167,122.0339
83200,122.0339
83233,122.0339
83267,122.0339
83300,122.0339
83333,122.0339
83367,122.0339
83400,122.0339
83433,122.0339
83467,122.0339
83500,122.0339
83533,122.0339
83567,122.0339
83600,120.6186
83633,120.6186
83667,120.6186
83700,120.6186
83733,120.6186
83767,120.6186
83800,120.6186
83833,120.6186
83867,120.6186
83900,120.6186
83933,120.6186
83967,122.0339
84000,122.0339
84033,122.0339
84067,122.0339
84100,121.875
84133,121.875
84167,121.875
84200,121.875
84233,121.875
84267,121.875
84300,121.875
84333,121.875
84367,121.875
84400,121.875
84433,121.875
84467,121.875
84500,121.875
84533,121.3483
84567,121.3483
84600,121.2435
84633,121.2435
84667,121.2435
84700,121.2435
84733,121.2435
84767,121.2435
84800,121.2435
84833,121.2435
84867,121.2435
84900,121.2435
84933,121.2435
84967,121.2435
85000,121.3483
85033,121.3483
85067,121.3483
85100,121.3483
85133,120.6186
85167,120.6186
85200,120.6186
85233,120.6186
85267,120.6186
85300,120.6186
85333,120.6186
85367,120.6186
85400,120.6186
85433,120.6186
85467,120.6186
85500,120.6704
85533,120.6704
85567,120.6704
85600,120.6704
85633,120.6704
85667,120.6704
85700,119.3878
85733,119.3878
85767,119.3878
85800,119.3878
85833,119.3878
85867,119.3878
85900,119.3878
85933,119.3878
85967,119.3878
86000,118.0328
86033,118.0328
86067,118.0328
86100,118.0328
86133,118.0328
86167,118.0328
86200,118.1818
86233,118.1818
86267,118.1818
86300,118.1818
86333,118.1818
86367,118.1818
86400,118.1818
86433,118.0328
86467,118.0328
86500,118.0328
86533,118.0328
86567,118.0328
86600,118.0328
86633,118.0328
86667,118.0328
86700,118.0328
86733,118.0328
86767,118.0328
86800,118.0328
86833,118.0328
86867,118.0328
86900,114.7059
86933,114.8936
86967,114.8936
87000,114.8936
87033,114.8936
87067,114.8936
87100,114.8936
87133,114.8936
87167,114.8936
87200,114.8936
87233,114.8936
87267,114.8936
87300,114.8936
87333,114.8936
87367,114.8936
87400,114.8936
87433,114.7059
87467,114.8936
87500,114.8936
87533,114.8936
87567,114.8936
87600,114.8936
87633,114.8936
87667,114.8936
87700,114.8936
87733,114.8936
87767,114.8936
87800,114.8936
87833,114.8936
87867,114.8936
87900,114.8936
87933,114.8936
87967,114.8936
88000,112.5
88033,112.5
88067,112.5
88100,112.5
88133,112.5
88167,112.5
88200,112.5
88233,112.5
88267,112.5
88300,112.5
88333,112.5
88367,112.5
88400,112.5
88433,111.8644
88467,111.8644
88500,111.8644
88533,111.8644
88567,111.8644
88600,110.7692
88633,110.7692
88667,110.7692
88700,110.7692
88733,110.7692
88767,110.7692
88800,110.7692
88833,110.7692
88867,110.7692
88900,110.7692
88933,109.3923
88967,109.3923
89000,109.3923
89033,109.3923
89067,109.3923
89100,109.3923
89133,109.3923
89167,109.0909
89200,109.0909
89233,109.0909
89267,109.0909
89300,109.0909
89333,109.0909
89367,109.0909
89400,107.6087
89433,107.6087
89467,107.6087
89500,107.6087
89533,107.6087
89567,107.6087
89600,109.6447
89633,109.6447
89667,109.6447
89700,109.6447
89733,109.6447
89767,109.6447
89800,109.6447
89833,109.6447
89867,110.0
89900,110.0
89933,110.0
89967,110.0
90000,110.0
90033,110.0
90067,111.3402
90100,111.3402
90133,111.3402
90167,111.3402
90200,111.3402
90233,111.3402
90267,111.3402
90300,111.3402
90333,111.3402
90367,111.3402
90400,111.3402
90433,110.6145
90467,110.6145
90500,110.6145
90533,110.6145
90567,110.6145
90600,110.7692
90633,110.7692
90667,110.7692
90700,110.7692
90733,110.7692
90767,110.7692
90800,110.7692
90833,110.7692
90867,110.7692
90900,110.7692
90933,110.0
90967,110.0
91000,110.0
91033,110.0
91067,111.3402
91100,111.3402
91133,111.3402
91167,111.3402
91200,111.3402
91233,111.3402
91267,111.3402
91300,111.3402
91333,111.3402
91367,111.3402
91400,111.3402
91433,111.236
91467,111.236
91500,111.236
91533,111.236
91567,111.9171
91600,111.9171
91633,111.9171
91667,111.9171
91700,111.9171
91733,111.9171
91767,111.9171
91800,111.9171
91833,111.9171
91867,111.9171
91900,111.9171
91933,111.9171
91967,113.1429
92000,113.1429
92033,113.1429
92067,113.6842
92100,113.6842
92133,113.6842
92167,113.6842
92200,113.6842
92233,113.6842
92267,113.6842
92300,113.6842
92333,113.6842
92367,113.6842
92400,113.6842
92433,113.6842
92467,113.6842
92500,113.6842
92533,113.6842
92567,113.1429
92600,113.1429
92633,113.1429
92667,113.1429
92700,111.3402
92733,111.3402
92767,111.3402
92800,111.3402
92833,111.3402
92867,111.3402
92900,111.3402
92933,111.3402
92967,111.3402
93000,111.3402
93033,111.3402
93067,113.7931
93100,113.7931
93133,113.7931
93167,113.7931
93200,113.7931
93233,113.7931
93267,113.089
93300,113.089
93333,113.089
93367,113.089
93400,113.089
93433,113.089
93467,113.089
93500,113.089
93533,113.089
93567,113.089
93600,113.089
93633,113.089
93667,113.089
93700,113.089
93733,113.1429
93767,113.1429
93800,113.1429
93833,112.5
93867,112.5
93900,112.5
93933,112.5
93967,112.5
94000,112.5
94033,112.5
94067,112.5
94100,112.5
94133,112.5
94167,112.5
94200,112.5
94233,112.5
94267,113.1429
94300,113.1429
94333,113.1429
94367,113.1429
94400,112.5
94433,112.5
94467,112.5
94500,112.5
94533,112.5
94567,112.5
94600,112.5
94633,112.5
94667,112.5
94700,112.5
94733,112.5
94767,112.5
94800,112.5
94833,113.7931
94867,113.7931
94900,113.7931
94933,113.7931
94967,113.7931
95000,113.7931
95033,111.9171
95067,111.9171
95100,111.9171
95133,111.9171
95167,111.9171
95200,111.9171
95233,111.9171
95267,111.9171
95300,111.9171
95333,111.9171
95367,111.9171
95400,111.9171
95433,112.5
95467,112.5
95500,112.5
95533,112.5
95567,112.5
95600,112.5
95633,112.5
95667,112.5
95700,112.5
95733,112.5
95767,112.5
95800,112.5
95833,108.0
95867,108.0
95900,108.0
95933,108.0
95967,108.0
96000,107.6087
96033,107.6087
96067,107.6087
96100,107.6087
96133,107.6087
96167,107.6087
96200,107.6087
96233,107.6087
96267,107.6087
96300,107.6087
96333,107.6087
96367,107.6087
96400,107.6087
96433,107.6087
96467,106.4039
96500,106.4039
96533,103.125
96567,103.125
96600,103.125
96633,103.125
96667,103.125
96700,103.125
96733,103.125
96767,103.125
96800,103.125
96833,103.125
96867,103.125
96900,101.6949
96933,101.6949
96967,101.6949
97000,101.6949
97033,101.6949
97067,101.6949
97100,101.6949
97133,100.5076
97167,100.5076
97200,100.5076
97233,100.5076
97267,100.5076
97300,100.5076
97333,100.5076
97367,100.5076
97400,98.9011
97433,98.9011
97467,98.9011
97500,98.9011
97533,98.9011
97567,98.9011
97600,98.9011
97633,98.9011
97667,98.9011
97700,99.49749
97733,99.49749
97767,99.49749
97800,99.49749
97833,99.49749
97867,99.49749
97900,97.82609
97933,97.82609
97967,97.82609
98000,97.82609
98033,97.82609
98067,97.82609
98100,97.82609
98133,97.82609
98167,97.82609
98200,97.82609
98233,97.82609
98267,97.82609
98300,97.82609
98333,97.53695
98367,97.53695
98400,95.74468
98433,95.74468
98467,95.74468
98500,95.74468
98533,95.74468
98567,95.74468
98600,95.74468
98633,95.74468
98667,95.74468
98700,95.74468
98733,95.74468
98767,95.74468
98800,95.74468
98833,95.74468
98867,95.74468
98900,95.85799
98933,95.85799
98967,95.85799
99000,95.85799
99033,95.85799
99067,95.85799
99100,95.85799
99133,95.85799
99167,95.85799
99200,92.78351
99233,92.78351
99267,92.78351
99300,92.78351
99333,92.78351
99367,92.78351
99400,92.78351
99433,92.78351
99467,92.78351
99500,92.78351
99533,91.01124
99567,91.01124
99600,91.01124
99633,91.01124
99667,90.50279
99700,90.50279
99733,92.30769
99767,92.30769
99800,92.30769
99833,92.30769
99867,92.30769
99900,92.30769
99933,92.30769
99967,92.30769
100000,92.30769
100033,92.30769
100067,91.52542
100100,91.52542
100133,91.52542
100167,91.52542
100200,91.52542
100233,91.52542
100267,93.26425
100300,93.26425
100333,93.26425
100367,93.26425
100400,93.26425
100433,93.26425
100467,93.26425
100500,93.26425
100533,93.26425
100567,93.26425
100600,93.26425
100633,93.26425
100667,92.04546
100700,92.04546
100733,94.73684
100767,94.73684
100800,94.73684
100833,94.73684
100867,94.73684
100900,94.73684
100933,94.73684
100967,94.73684
101000,94.73684
101033,94.73684
101067,94.73684
101100,94.73684
101133,94.73684
101167,94.73684
101200,94.73684
101233,94.73684
101267,94.73684
101300,94.73684
101333,94.73684
101367,94.73684
101400,94.24084
101433,94.24084
101467,94.24084
101500,94.24084
101533,94.24084
101567,94.24084
101600,94.24084
101633,94.24084
101667,84.81676
101700,84.81676
101733,84.81676
101767,84.81676
101800,84.81676
101833,84.81676
101867,86.22755
101900,86.22755
101933,86.22755
101967,86.22755
102000,86.22755
102033,87.09676999999998
102067,87.09676999999998
102100,87.09676999999998
102133,87.09676999999998
102167,87.09676999999998
102200,87.09676999999998
102233,87.09676999999998
102267,87.09676999999998
102300,87.09676999999998
102333,87.09676999999998
102367,87.09676999999998
102400,87.09676999999998
102433,87.09676999999998
102467,87.09676999999998
102500,87.09676999999998
102533,87.09676999999998
102567,87.09676999999998
102600,87.09676999999998
102633,87.09676999999998
102667,86.22755
102700,86.63101999999998
102733,86.63101999999998
102767,86.63101999999998
102800,86.63101999999998
102833,86.63101999999998
102867,86.63101999999998
102900,86.63101999999998
102933,86.63101999999998
102967,86.63101999999998
103000,86.63101999999998
103033,86.63101999999998
103067,86.63101999999998
103100,86.63101999999998
103133,86.63101999999998
103167,86.63101999999998
103200,86.63101999999998
103233,86.63101999999998
103267,86.63101999999998
103300,86.22755
103333,86.22755
103367,86.22755
103400,86.22755
103433,86.22755
103467,86.22755
103500,86.22755
103533,86.22755
103567,86.22755
103600,86.22755
103633,86.22755
103667,86.22755
103700,86.22755
103733,86.22755
103767,86.22755
103800,81.0
103833,81.0
103867,81.0
103900,81.0
103933,81.0
103967,79.12088
104000,79.12088
104033,79.12088
104067,79.12088
104100,79.12088
104133,79.12088
104167,79.12088
104200,79.12088
104233,79.12088
104267,79.12088
104300,79.55801
104333,79.55801
104367,79.55801
104400,79.55801
104433,79.55801
104467,79.55801
104500,79.55801
104533,79.55801
104567,77.77778
104600,77.77778
104633,77.77778
104667,77.77778
104700,75.39267
104733,75.39267
104767,75.78947
104800,75.78947
104833,75.39267
104867,75.39267
104900,75.39267
104933,75.39267
104967,75.39267
105000,75.39267
105033,75.39267
105067,75.39267
105100,75.39267
105133,75.39267
105167,75.0
105200,75.0
105233,75.0
105267,75.0
105300,75.0
105333,75.0
105367,75.0
105400,75.0
105433,64.28571
105467,64.28571
105500,63.905330000000006
105533,63.905330000000006
105567,63.905330000000006
105600,63.905330000000006
105633,63.905330000000006
105667,63.905330000000006
105700,63.905330000000006
105733,63.905330000000006
105767,63.905330000000006
105800,63.905330000000006
105833,63.905330000000006
105867,63.905330000000006
105900,60.81081
105933,60.81081
105967,60.81081
106000,60.81081
106033,60.81081
106067,60.81081
106100,60.81081
106133,60.81081
106167,60.81081
106200,55.95855
106233,55.95855
106267,55.95855
106300,55.95855
106333,55.95855
106367,55.95855
106400,55.95855
106433,55.95855
106467,55.95855
106500,55.95855
106533,55.95855
106567,55.95855
106600,54.54546
106633,54.54546
106667,54.54546
106700,54.54546
106733,54.54546
106767,54.54546
106800,54.54546
106833,54.54546
106867,54.54546
106900,54.54546
106933,54.54546
106967,54.54546
107000,54.54546
107033,54.54546
107067,54.54546
107100,54.54546
107133,54.54546
107167,54.54546
107200,54.54546
107233,54.54546
107267,54.54546
107300,54.54546
107333,54.54546
107367,54.54546
107400,54.54546
107433,54.54546
107467,54.54546
107500,54.54546
107533,50.0
107567,50.0
107600,50.0
107633,50.0
107667,50.0
107700,50.0
107733,50.0
107767,50.0
107800,50.0
107833,50.0
107867,50.0
107900,50.0
107933,45.91837
107967,45.91837
108000,45.91837
108033,45.91837
108067,45.91837
108100,45.91837
108133,45.91837
108167,45.91837
108200,45.91837
108233,40.67797
108267,40.67797
108300,40.67797
108333,40.67797
108367,40.67797
108400,40.67797
108433,40.67797
108467,40.67797
108500,40.67797
108533,40.67797
108567,40.67797
108600,40.67797
108633,40.67797
108667,40.67797
108700,40.67797
108733,40.67797
108767,40.67797
108800,40.67797
108833,40.67797
108867,41.22137
108900,41.22137
108933,41.22137
108967,41.22137
109000,41.22137
109033,41.22137
109067,41.22137
109100,41.22137
109133,43.11377
109167,43.11377
109200,42.85714
109233,42.85714
109267,42.85714
109300,42.85714
109333,42.85714
109367,43.11377
109400,43.11377
109433,43.11377
109467,43.11377
109500,43.11377
109533,43.11377
109567,43.11377
109600,43.11377
109633,42.85714
109667,42.85714
109700,42.85714
109733,42.85714
109767,42.85714
109800,42.85714
109833,42.85714
109867,42.85714
109900,42.85714
109933,42.85714
109967,42.85714
110000,42.85714
110033,42.85714
110067,42.85714
110100,42.85714
110133,42.85714
110167,45.45454
110200,45.45454
110233,45.45454
110267,45.45454
110300,45.45454
110333,45.45454
110367,45.45454
110400,43.90244000000001
110433,43.90244000000001
110467,43.90244000000001
110500,43.90244000000001
110533,43.90244000000001
110567,43.90244000000001
110600,43.90244000000001
110633,43.90244000000001
110667,43.90244000000001
110700,43.90244000000001
110733,43.90244000000001
110767,43.90244000000001
110800,43.90244000000001
110833,43.90244000000001
110867,43.90244000000001
110900,43.90244000000001
110933,43.90244000000001
110967,43.90244000000001
111000,43.90244000000001
111033,48.64865
111067,48.64865
111100,48.64865
111133,48.64865
111167,48.64865
111200,48.64865
111233,48.64865
111267,48.64865
111300,48.64865
111333,48.64865
111367,48.64865
111400,48.64865
111433,49.72376
111467,49.72376
111500,49.72376
111533,49.72376
111567,49.72376
111600,49.72376
111633,49.72376
111667,51.42857
111700,51.42857
111733,51.42857
111767,51.42857
111800,51.42857
111833,51.42857
111867,51.42857
111900,51.06383
111933,51.06383
111967,50.0
112000,50.0
112033,53.57143000000001
112067,53.89222
112100,53.89222
112133,53.89222
112167,53.57143000000001
112200,53.57143000000001
112233,53.57143000000001
112267,59.01639
112300,59.01639
112333,59.01639
112367,59.01639
112400,59.01639
112433,58.69565
112467,58.69565
112500,58.69565
112533,58.69565
112567,58.69565
112600,58.69565
112633,58.69565
112667,58.37838000000001
112700,68.10811
112733,58.37838000000001
112767,58.37838000000001
112800,58.37838000000001
112833,62.37624
112867,62.37624
112900,62.37624
112933,73.9726
112967,86.30136999999998
113000,86.30136999999998
113033,86.30136999999998
113067,86.30136999999998
113100,86.30136999999998
113133,86.30136999999998
113167,86.30136999999998
113200,86.30136999999998
113233,86.30136999999998
113267,86.30136999999998
113300,86.30136999999998
113333,86.30136999999998
113367,86.30136999999998
113400,86.30136999999998
113433,87.80488000000004
113467,87.80488000000004
113500,87.80488000000004
113533,87.80488000000004
113567,87.80488000000004
113600,87.80488000000004
113633,87.80488000000004
113667,87.80488000000004
113700,87.80488000000004
113733,87.80488000000004
113767,87.80488000000004
113800,87.80488000000004
113833,87.80488000000004
113867,87.80488000000004
113900,87.80488000000004
113933,87.80488000000004
113967,87.80488000000004
114000,87.80488000000004
114033,87.80488000000004
114067,88.52459
114100,88.52459
114133,89.01099
114167,89.01099
114200,89.01099
114233,89.01099
114267,89.01099
114300,89.01099
114333,89.01099
114367,89.01099
114400,89.01099
114433,89.01099
114467,89.01099
114500,89.01099
114533,89.01099
114567,89.01099
114600,89.01099
114633,89.01099
114667,89.01099
114700,89.01099
114733,89.10891
114767,89.10891
114800,89.10891
114833,100.6211
114867,100.6211
114900,100.6211
114933,100.6211
114967,100.6211
115000,100.6211
115033,100.6211
115067,100.6211
115100,100.6211
115133,100.6211
115167,100.6211
115200,102.8571
115233,102.8571
115267,102.8571
115300,102.8571
115333,102.8571
115367,102.8571
115400,102.8571
115433,102.8571
115467,102.8571
115500,102.8571
115533,102.8571
115567,102.8571
115600,102.8571
115633,102.8571
115667,102.8571
115700,102.8571
115733,102.8571
115767,103.125
115800,103.125
115833,103.125
115867,103.125
115900,103.125
115933,103.125
115967,103.125
116000,103.125
116033,103.125
116067,103.125
116100,103.125
116133,103.125
116167,103.125
116200,104.0462
116233,104.0462
116267,104.0462
116300,104.0462
116333,104.0462
116367,104.0462
116400,104.0462
116433,102.5907
116467,102.5907
116500,102.5907
116533,102.5907
116567,102.5907
116600,102.5907
116633,102.5907
116667,102.5907
116700,102.5907
116733,102.5907
116767,102.5907
116800,102.5907
116833,102.2727
116867,102.2727
116900,102.2727
116933,102.2727
116967,102.2727
117000,102.2727
117033,102.2727
117067,102.2727
117100,102.2727
117133,102.2727
117167,102.2727
117200,99.49749
117233,99.49749
117267,99.49749
117300,99.49749
117333,99.49749
117367,99.49749
117400,99.44752
117433,99.44752
117467,99.44752
117500,99.44752
117533,99.44752
117567,99.44752
117600,99.44752
117633,99.44752
117667,99.44752
117700,99.44752
117733,100.5076
117767,100.5076
117800,100.5076
117833,100.5076
117867,100.5076
117900,100.5076
117933,100.5076
117967,100.5076
118000,100.0
118033,100.0
118067,100.0
118100,100.0
118133,100.0
118167,100.0
118200,100.0
118233,100.0
118267,101.0204
118300,101.0204
118333,101.0204
118367,101.0204
118400,101.0204
118433,101.0204
118467,101.0204
118500,101.0204
118533,101.0204
118567,100.0
118600,100.0
118633,100.0
118667,100.0
118700,100.0
118733,100.0
118767,100.0
118800,100.0
118833,100.0
118867,100.0
118900,99.49749
118933,99.49749
118967,99.49749
119000,99.49749
119033,99.49749
119067,99.49749
119100,98.9011
119133,99.38651
119167,99.38651
119200,99.38651
119233,99.38651
119267,94.73684
119300,95.2381
119333,95.2381
119367,95.2381
119400,95.2381
119433,95.2381
119467,95.2381
119500,95.2381
119533,95.74468
119567,95.74468
119600,95.74468
119633,95.74468
119667,95.29412
119700,95.29412
119733,95.29412
119767,95.29412
119800,95.29412
119833,95.29412
119867,95.29412
119900,95.29412
119933,84.70588000000002
119967,84.70588000000002
120000,84.70588000000002
120033,84.70588000000002
120067,84.70588000000002
120100,84.70588000000002
120133,84.70588000000002
120167,84.70588000000002
120200,84.70588000000002
120233,84.70588000000002
120267,84.0
120300,84.0
120333,84.0
120367,84.0
120400,84.0
120433,84.0
120467,84.0
120500,84.0
120533,84.0
120567,84.0
120600,84.0
120633,84.0
120667,84.0
120700,84.0
120733,84.0
120767,72.0
120800,72.0
120833,72.0
120867,72.0
120900,72.0
120933,69.61326
120967,69.61326
121000,69.61326
121033,69.61326
121067,69.61326
121100,69.23076999999999
121133,69.23076999999999
121167,69.23076999999999
121200,69.23076999999999
121233,69.23076999999999
121267,69.23076999999999
121300,69.23076999999999
121333,59.34066
121367,59.34066
121400,59.34066
121433,59.34066
121467,59.34066
121500,59.34066
121533,59.34066
121567,59.60265
121600,59.60265
121633,59.60265
121667,59.60265
121700,59.60265
121733,59.60265
121767,59.60265
121800,59.60265
121833,59.60265
121867,59.60265
121900,59.60265
121933,59.60265
121967,59.60265
122000,57.75401
122033,57.75401
122067,57.75401
122100,57.75401
122133,57.75401
122167,57.75401
122200,57.75401
122233,57.75401
122267,57.75401
122300,57.75401
122333,57.75401
122367,57.75401
122400,57.75401
122433,57.75401
122467,57.75401
122500,57.75401
122533,57.75401
122567,57.75401
122600,53.57143000000001
122633,53.57143000000001
122667,53.57143000000001
122700,53.57143000000001
122733,53.57143000000001
122767,53.57143000000001
122800,53.57143000000001
122833,53.57143000000001
122867,53.57143000000001
122900,53.57143000000001
122933,53.57143000000001
122967,53.57143000000001
123000,53.57143000000001
123033,53.57143000000001
123067,53.57143000000001
123100,53.57143000000001
123133,55.38462
123167,55.38462
123200,55.38462
123233,52.63158000000001
123267,52.63158000000001
123300,52.63158000000001
123333,52.63158000000001
123367,52.63158000000001
123400,52.63158000000001
123433,52.63158000000001
123467,52.63158000000001
123500,52.63158000000001
123533,52.63158000000001
123567,52.63158000000001
123600,52.63158000000001
123633,52.63158000000001
123667,52.63158000000001
123700,52.94118
123733,52.94118
123767,52.94118
123800,52.94118
123833,53.25444
123867,53.25444
123900,53.25444
123933,53.25444
123967,53.25444
124000,53.25444
124033,53.20197
124067,53.20197
124100,52.63158000000001
124133,52.63158000000001
124167,52.63158000000001
124200,52.63158000000001
124233,52.63158000000001
124267,52.63158000000001
124300,52.63158000000001
124333,52.63158000000001
124367,52.63158000000001
124400,52.63158000000001
124433,52.63158000000001
124467,52.63158000000001
124500,52.63158000000001
124533,52.63158000000001
124567,52.63158000000001
124600,52.63158000000001
124633,52.63158000000001
124667,52.63158000000001
124700,52.63158000000001
124733,52.63158000000001
124767,52.63158000000001
124800,52.63158000000001
124833,52.63158000000001
124867,52.63158000000001
124900,52.63158000000001
124933,52.63158000000001
124967,52.63158000000001
125000,54.0
125033,54.0
125067,54.0
125100,54.0
125133,54.0
125167,50.84746
125200,50.84746
125233,50.84746
125267,50.84746
125300,51.13636
125333,51.13636
125367,51.13636
125400,51.13636
125433,51.13636
125467,51.13636
125500,51.13636
125533,51.13636
125567,51.13636
125600,51.13636
125633,51.13636
125667,54.82233000000001
125700,54.82233000000001
125733,54.82233000000001
125767,54.82233000000001
125800,54.82233000000001
125833,54.82233000000001
125867,54.82233000000001
125900,54.82233000000001
125933,61.64384
125967,61.64384
126000,61.64384
126033,61.64384
126067,61.64384
126100,61.64384
126133,61.64384
126167,61.64384
126200,61.64384
126233,61.64384
126267,61.64384
126300,61.64384
126333,61.64384
126367,61.64384
126400,62.06896999999999
126433,62.06896999999999
126467,62.06896999999999
126500,62.06896999999999
126533,62.06896999999999
126567,62.06896999999999
126600,62.06896999999999
126633,62.06896999999999
126667,62.06896999999999
126700,62.06896999999999
126733,62.06896999999999
126767,62.06896999999999
126800,62.06896999999999
126833,62.06896999999999
126867,62.06896999999999
126900,62.06896999999999
126933,62.06896999999999
126967,62.06896999999999
127000,62.06896999999999
127033,62.06896999999999
127067,62.06896999999999
127100,62.06896999999999
127133,62.06896999999999
127167,56.84211
127200,56.84211
127233,56.84211
127267,56.84211
127300,56.84211
127333,56.84211
127367,56.84211
127400,56.84211
127433,56.84211
127467,56.84211
127500,56.84211
127533,56.84211
127567,56.84211
127600,56.84211
127633,56.84211
127667,58.44156
127700,58.44156
127733,58.44156
127767,58.44156
127800,58.44156
127833,58.44156
127867,58.44156
127900,58.44156
127933,58.44156
127967,58.44156
128000,58.44156
128033,58.44156
128067,58.44156
128100,58.44156
128133,58.44156
128167,58.44156
128200,58.44156
128233,60.0
128267,60.0
128300,60.0
128333,60.0
128367,60.0
128400,60.0
128433,60.0
128467,60.0
128500,60.0
128533,60.0
128567,60.0
128600,60.0
128633,60.0
128667,60.0
128700,60.0
128733,60.0
128767,60.0
128800,60.0
128833,60.0
128867,58.44156
128900,58.44156
128933,59.66851
128967,59.66851
129000,59.66851
129033,59.66851
129067,59.66851
129100,59.66851
129133,59.66851
129167,59.66851
129200,59.66851
129233,59.66851
129267,59.66851
129300,59.66851
129333,59.66851
129367,59.66851
129400,59.66851
129433,59.66851
129467,59.66851
129500,59.66851
129533,59.66851
129567,59.66851
129600,59.66851
129633,59.66851
129667,59.66851
129700,59.66851
129733,61.22449
129767,61.22449
129800,61.22449
129833,61.22449
129867,61.22449
129900,61.22449
129933,61.22449
129967,60.67416
130000,60.67416
130033,60.67416
130067,60.67416
130100,60.67416
130133,60.67416
130167,60.67416
130200,60.67416
130233,60.67416
130267,60.67416
130300,60.0
130333,60.0
130367,60.0
130400,60.0
130433,60.0
130467,60.0
130500,60.0
130533,60.0
130567,60.0
130600,60.0
130633,60.0
130667,60.0
130700,60.0
130733,60.0
130767,60.0
130800,60.0
130833,60.0
130867,59.21053000000001
130900,59.21053000000001
130933,59.21053000000001
130967,59.21053000000001
131000,59.21053000000001
131033,59.21053000000001
131067,59.21053000000001
131100,59.21053000000001
131133,59.21053000000001
131167,58.06452
131200,58.06452
131233,58.06452
131267,58.06452
131300,58.06452
131333,58.06452
131367,58.06452
131400,58.06452
131433,58.06452
131467,58.06452
131500,58.06452
131533,58.06452
131567,58.06452
131600,58.06452
131633,58.06452
131667,58.06452
131700,58.06452
131733,58.06452
131767,61.76471
131800,59.01639
131833,59.01639
131867,59.01639
131900,58.69565
131933,58.69565
131967,58.69565
132000,59.01639
132033,59.01639
132067,59.01639
132100,59.01639
132133,59.01639
132167,59.01639
132200,59.01639
132233,59.01639
132267,59.01639
132300,59.01639
132333,59.01639
132367,59.01639
132400,59.01639
132433,59.01639
132467,59.01639
132500,67.5
132533,67.5
132567,67.5
132600,67.5
132633,67.5
132667,67.5
132700,67.5
132733,67.5
132767,67.5
132800,67.5
132833,67.5
132867,67.5
132900,67.5
132933,67.5
132967,67.5
133000,67.5
133033,67.5
133067,67.5
133100,67.5
133133,67.5
133167,67.5
133200,70.39106
133233,70.39106
133267,70.39106
133300,70.39106
133333,70.39106
133367,70.39106
133400,70.39106
133433,70.39106
133467,70.39106
133500,70.39106
133533,70.39106
133567,70.39106
133600,70.39106
133633,70.39106
133667,70.39106
133700,70.39106
133733,70.39106
133767,72.72726999999998
133800,72.72726999999998
133833,72.72726999999998
133867,72.72726999999998
133900,72.72726999999998
133933,72.72726999999998
133967,72.72726999999998
134000,73.25581
134033,73.25581
134067,73.25581
134100,73.25581
134133,73.25581
134167,73.25581
134200,73.25581
134233,73.25581
134267,73.25581
134300,73.25581
134333,73.25581
134367,73.25581
134400,73.25581
134433,73.25581
134467,73.25581
134500,73.25581
134533,75.0
134567,75.0
134600,75.0
134633,75.0
134667,75.0
134700,75.0
134733,75.0
134767,75.0
134800,75.0
134833,75.0
134867,76.36364
134900,76.36364
134933,76.36364
134967,76.36364
135000,76.36364
135033,76.36364
135067,76.36364
135100,76.36364
135133,77.41936
135167,77.41936
135200,77.41936
135233,77.41936
135267,77.41936
135300,77.41936
135333,77.41936
135367,77.41936
135400,77.41936
135433,77.41936
135467,77.41936
135500,77.41936
135533,77.41936
135567,77.41936
135600,77.41936
135633,77.41936
135667,77.41936
135700,77.41936
135733,77.41936
135767,80.76923000000002
135800,80.76923000000002
135833,80.76923000000002
135867,80.76923000000002
135900,80.76923000000002
135933,80.76923000000002
135967,80.76923000000002
136000,80.76923000000002
136033,80.76923000000002
136067,80.76923000000002
136100,80.76923000000002
136133,80.76923000000002
136167,80.76923000000002
136200,76.59574
136233,76.59574
136267,76.59574
136300,76.59574
136333,76.59574
136367,76.59574
136400,76.59574
136433,76.59574
136467,76.59574
136500,76.59574
136533,76.59574
136567,76.59574
136600,76.59574
136633,76.59574
136667,76.59574
136700,76.59574
136733,76.59574
136767,83.44371
136800,83.44371
136833,83.44371
136867,83.44371
136900,83.44371
136933,83.44371
136967,83.44371
137000,83.44371
137033,83.44371
137067,83.44371
137100,83.44371
137133,83.44371
137167,83.44371
137200,83.44371
137233,83.44371
137267,83.44371
137300,83.44371
137333,71.52318000000002
137367,71.52318000000002
137400,71.52318000000002
137433,71.52318000000002
137467,71.52318000000002
137500,71.52318000000002
137533,65.96859
137567,66.31579
137600,66.31579
137633,66.31579
137667,66.31579
137700,66.31579
137733,66.31579
137767,66.31579
137800,66.31579
137833,66.31579
137867,66.31579
137900,65.96859
137933,65.96859
137967,65.96859
138000,62.42775
138033,62.42775
138067,62.42775
138100,62.42775
138133,62.42775
138167,62.42775
138200,62.42775
138233,62.42775
138267,62.42775
138300,62.42775
138333,62.42775
138367,62.42775
138400,52.02312
138433,52.02312
138467,52.02312
138500,52.02312
138533,52.02312
138567,52.02312
138600,48.64865
138633,46.15385
138667,46.15385
138700,46.15385
138733,46.15385
138767,46.15385
138800,46.15385
138833,46.15385
138867,46.15385
138900,46.15385
138933,46.15385
138967,46.15385
139000,46.15385
139033,46.63213
139067,46.63213
139100,46.63213
139133,46.63213
139167,46.63213
139200,46.63213
139233,46.63213
139267,46.63213
139300,46.39175
139333,46.39175
139367,46.39175
139400,46.39175
139433,45.56962
139467,45.56962
139500,45.56962
139533,45.56962
139567,45.56962
139600,45.56962
139633,45.56962
139667,45.56962
139700,45.56962
139733,45.56962
139767,45.56962
139800,45.56962
139833,45.56962
139867,45.56962
139900,45.56962
139933,45.56962
139967,45.56962
140000,45.56962
140033,45.56962
140067,45.56962
140100,45.56962
140133,47.61905
140167,47.61905
140200,47.61905
140233,47.61905
140267,47.61905
140300,47.61905
140333,47.61905
140367,47.36842
140400,47.36842
140433,47.36842
140467,47.36842
140500,47.36842
140533,47.36842
140567,47.36842
140600,47.36842
140633,48.0
140667,48.0
140700,48.0
140733,48.0
140767,48.0
140800,48.0
140833,48.0
140867,48.0
140900,48.0
140933,48.0
140967,48.0
141000,48.0
141033,48.0
141067,48.0
141100,48.0
141133,48.0
141167,48.0
141200,48.0
141233,48.0
141267,48.0
141300,48.0
141333,48.0
141367,48.12834
141400,48.12834
141433,48.0
141467,48.0
141500,48.0
141533,46.875
141567,46.875
141600,46.875
141633,46.875
141667,46.875
141700,47.12042
141733,47.12042
141767,47.12042
141800,47.12042
141833,47.12042
141867,47.12042
141900,47.12042
141933,47.12042
141967,45.28302
142000,45.28302
142033,45.28302
142067,45.28302
142100,45.28302
142133,45.28302
142167,45.28302
142200,45.28302
142233,45.28302
142267,45.28302
142300,45.28302
142333,45.28302
142367,45.28302
142400,45.28302
142433,45.28302
142467,47.87234
142500,47.87234
142533,47.87234
142567,47.87234
142600,47.87234
142633,47.87234
142667,47.87234
142700,47.87234
142733,47.87234
142767,47.87234
142800,47.87234
142833,47.87234
142867,47.87234
142900,47.87234
142933,47.87234
142967,47.87234
143000,47.87234
143033,51.42857
143067,51.42857
143100,51.42857
143133,51.42857
143167,51.42857
143200,51.42857
143233,51.42857
143267,51.42857
143300,51.42857
143333,51.42857
143367,51.42857
143400,51.42857
143433,51.42857
143467,52.94118
143500,52.94118
143533,52.94118
143567,53.25444
143600,52.94118
143633,52.94118
143667,52.94118
143700,52.94118
143733,52.94118
143767,52.94118
143800,52.94118
143833,52.94118
143867,52.94118
143900,52.94118
143933,52.94118
143967,52.94118
144000,52.94118
144033,52.94118
144067,52.94118
144100,52.94118
144133,52.94118
144167,52.94118
144200,52.94118
144233,52.94118
144267,52.94118
144300,52.94118
144333,52.94118
144367,52.94118
144400,52.94118
144433,52.94118
144467,52.94118
144500,52.94118
144533,52.94118
144567,52.94118
144600,52.94118
144633,54.54546
144667,54.54546
144700,54.54546
144733,54.54546
144767,54.54546
144800,54.54546
144833,54.54546
144867,54.54546
144900,54.54546
144933,54.54546
144967,54.54546
145000,54.54546
145033,54.54546
145067,54.54546
145100,54.54546
145133,54.54546
145167,54.54546
145200,48.91304
145233,54.54546
145267,48.3871
145300,48.3871
145333,48.3871
145367,48.3871
145400,48.3871
145433,48.3871
145467,48.3871
145500,48.3871
145533,48.3871
145567,48.3871
145600,48.3871
145633,48.3871
145667,48.3871
145700,48.3871
145733,48.3871
145767,48.3871
145800,48.3871
145833,48.3871
145867,48.3871
145900,46.75325
145933,46.75325
145967,46.75325
146000,46.75325
146033,46.75325
146067,46.75325
146100,46.75325
146133,46.75325
146167,46.75325
146200,46.75325
146233,46.75325
146267,46.75325
146300,46.75325
146333,46.75325
146367,46.75325
146400,46.75325
146433,46.75325
146467,46.75325
146500,46.75325
146533,46.75325
146567,46.75325
146600,46.75325
146633,46.75325
146667,46.75325
146700,45.68528
146733,45.68528
146767,45.68528
146800,45.68528
146833,45.68528
146867,45.68528
146900,45.68528
146933,45.68528
146967,46.15385
147000,46.15385
147033,46.15385
147067,46.15385
147100,46.15385
147133,46.15385
147167,46.15385
147200,46.15385
147233,46.15385
147267,46.15385
147300,46.15385
147333,46.15385
147367,46.15385
147400,46.15385
147433,46.15385
147467,46.15385
147500,46.15385
147533,49.72376
147567,49.72376
147600,49.72376
147633,49.72376
147667,49.72376
147700,49.72376
147733,49.72376
147767,49.72376
147800,49.72376
147833,49.72376
147867,49.72376
147900,49.72376
147933,49.72376
147967,49.72376
148000,49.72376
148033,49.72376
148067,49.72376
148100,49.72376
148133,49.72376
148167,49.72376
148200,49.72376
148233,49.72376
148267,49.72376
148300,49.72376
148333,47.05882
148367,47.05882
148400,47.05882
148433,47.05882
148467,49.72376
148500,49.72376
148533,49.72376
148567,49.72376
148600,49.72376
148633,49.72376
148667,49.72376
148700,49.72376
148733,49.72376
148767,49.72376
148800,49.72376
148833,49.72376
148867,49.72376
148900,49.72376
148933,49.72376
148967,49.72376
149000,49.72376
149033,49.72376
149067,49.72376
149100,49.72376
149133,49.72376
149167,49.72376
149200,49.72376
149233,49.45055
149267,47.68212
149300,47.68212
149333,47.68212
149367,47.68212
149400,47.68212
149433,47.68212
149467,50.0
149500,49.72376
149533,49.72376
149567,49.72376
149600,49.72376
149633,49.72376
149667,49.72376
149700,49.72376
149733,49.72376
149767,49.72376
149800,49.72376
149833,49.72376
149867,49.72376
149900,49.72376
149933,49.72376
149967,49.72376
150000,49.72376
150033,49.72376
150067,49.72376
150100,49.72376
150133,49.72376
150167,49.72376
150200,49.72376
150233,49.72376
150267,49.72376
150300,56.69291
150333,56.69291
150367,56.69291
150400,56.69291
150433,56.69291
150467,56.69291
150500,56.69291
150533,56.69291
150567,56.69291
150600,56.69291
150633,56.69291
150667,56.69291
150700,56.69291
150733,56.69291
150767,56.69291
150800,56.69291
150833,57.14286
150867,57.14286
150900,57.14286
150933,57.14286
150967,57.14286
151000,57.14286
151033,57.14286
151067,57.14286
151100,57.14286
151133,57.14286
151167,57.14286
151200,57.14286
151233,57.14286
151267,57.14286
151300,57.14286
151333,57.14286
151367,57.14286
151400,57.14286
151433,57.14286
151467,57.14286
151500,57.14286
151533,57.14286
151567,57.14286
151600,57.14286
151633,57.14286
151667,57.14286
151700,57.14286
151733,57.14286
151767,57.14286
151800,57.14286
151833,45.68528
151867,45.68528
151900,45.91837
151933,45.91837
151967,45.91837
152000,45.91837
152033,45.91837
152067,45.91837
152100,47.05882
152133,47.05882
152167,47.05882
152200,47.05882
152233,47.05882
152267,47.05882
152300,47.05882
152333,47.05882
152367,47.05882
152400,47.05882
152433,47.05882
152467,47.05882
152500,47.05882
152533,47.05882
152567,47.05882
152600,47.05882
152633,47.05882
152667,47.05882
152700,47.05882
152733,47.05882
152767,47.05882
152800,47.05882
152833,47.05882
152867,47.05882
152900,47.05882
152933,47.05882
152967,47.05882
153000,47.61905
153033,47.05882
153067,47.05882
153100,47.05882
153133,47.05882
153167,46.39175
153200,46.63213
153233,46.63213
153267,46.63213
153300,46.63213
153333,46.63213
153367,46.63213
153400,46.63213
153433,46.63213
153467,46.63213
153500,46.63213
153533,42.85714
153567,42.85714
153600,42.85714
153633,42.85714
153667,42.85714
153700,42.85714
153733,42.85714
153767,42.85714
153800,42.85714
153833,42.85714
153867,42.85714
153900,42.85714
153933,42.85714
153967,42.85714
154000,42.85714
154033,42.85714
154067,42.85714
154100,42.85714
154133,42.85714
154167,45.22613
154200,45.22613
154233,45.22613
154267,45.22613
154300,45.22613
154333,45.22613
154367,42.10526
154400,42.10526
154433,42.35294
154467,42.10526
154500,42.10526
154533,42.10526
154567,42.10526
154600,42.10526
154633,42.10526
154667,42.10526
154700,42.10526
154733,42.10526
154767,42.10526
154800,42.10526
154833,42.10526
154867,42.10526
154900,42.10526
154933,42.10526
154967,42.10526
155000,42.10526
155033,42.10526
155067,42.10526
155100,42.10526
155133,42.10526
155167,42.10526
155200,42.10526
155233,42.10526
155267,42.10526
155300,38.57143
155333,38.57143
155367,38.57143
155400,38.57143
155433,38.57143
155467,38.57143
155500,38.57143
155533,38.57143
155567,39.77901
155600,39.77901
155633,39.77901
155667,39.77901
155700,39.56044
155733,39.56044
155767,39.56044
155800,39.56044
155833,39.56044
155867,39.56044
155900,39.56044
155933,39.56044
155967,39.56044
156000,39.56044
156033,39.56044
156067,39.56044
156100,39.56044
156133,39.56044
156167,39.56044
156200,39.56044
156233,39.56044
156267,39.56044
156300,39.56044
156333,39.56044
156367,46.55172
156400,46.55172
156433,46.55172
156467,46.55172
156500,46.15385
156533,46.15385
156567,45.76271
156600,45.37815
156633,45.37815
156667,50.0
156700,50.0
156733,50.0
156767,50.0
156800,50.0
156833,50.0
156867,50.0
156900,50.0
156933,50.0
156967,50.0
157000,50.34965
157033,50.34965
157067,50.34965
157100,56.96202
157133,68.35443000000001
157167,68.35443000000001
157200,68.35443000000001
157233,67.92453
157267,67.92453
157300,67.92453
157333,67.92453
157367,67.92453
157400,67.92453
157433,67.92453
157467,67.92453
157500,67.92453
157533,72.0
157567,72.0
157600,72.0
157633,72.0
157667,72.0
157700,82.28571
157733,82.28571
157767,82.28571
157800,82.28571
157833,82.28571
157867,82.28571
157900,82.28571
157933,82.28571
157967,82.28571
158000,82.28571
158033,82.28571
158067,82.28571
158100,84.375
158133,84.375
158167,93.75
158200,93.75
158233,93.75
158267,93.26425
158300,93.26425
158333,93.26425
158367,93.26425
158400,93.26425
158433,93.26425
158467,93.26425
158500,100.6211
158533,100.6211
158567,100.6211
158600,100.6211
158633,100.6211
158667,100.6211
158700,100.6211
158733,100.6211
158767,100.6211
158800,100.6211
158833,100.6211
158867,100.6211
158900,100.6211
158933,100.6211
158967,100.6211
159000,100.6211
159033,100.6211
159067,100.6211
159100,100.6211
159133,100.6211
159167,100.6211
159200,100.6211
159233,92.30769
159267,100.6211
159300,100.6211
159333,100.6211
159367,100.6211
159400,90.0
159433,90.0
159467,90.0
159500,90.0
159533,88.04348
159567,88.04348
159600,88.04348
159633,88.04348
159667,88.04348
159700,88.04348
159733,88.04348
159767,88.04348
159800,78.26087
159833,78.26087
159867,78.26087
159900,78.26087
159933,78.26087
159967,78.26087
160000,78.26087
160033,78.26087
160067,78.26087
160100,78.75
160133,67.5
160167,67.5
160200,56.25
160233,56.25
160267,56.25
160300,56.25
160333,56.25
160367,56.25
160400,56.84211
160433,56.84211
160467,56.5445
160500,56.5445
160533,56.84211
160567,56.84211
160600,56.84211
160633,56.84211
160667,56.84211
160700,56.84211
160733,56.84211
160767,56.84211
160800,56.84211
160833,56.84211
160867,56.84211
160900,52.02312
160933,52.02312
160967,52.02312
161000,52.02312
161033,52.02312
161067,51.72414000000001
161100,51.72414000000001
161133,51.72414000000001
161167,51.72414000000001
161200,51.72414000000001
161233,51.72414000000001
161267,51.72414000000001
161300,51.72414000000001
161333,51.72414000000001
161367,51.72414000000001
161400,51.72414000000001
161433,51.72414000000001
161467,51.06383
161500,51.06383
161533,51.06383
161567,51.06383
161600,51.06383
161633,51.06383
161667,51.06383
161700,51.06383
161733,51.06383
161767,51.06383
161800,51.06383
161833,51.06383
161867,51.06383
161900,51.06383
161933,48.3871
161967,48.3871
162000,48.3871
162033,48.3871
162067,48.3871
162100,48.3871
162133,48.12834
162167,48.12834
162200,48.12834
162233,47.87234
162267,47.87234
162300,47.87234
162333,47.87234
162367,47.87234
162400,47.87234
162433,47.87234
162467,47.87234
162500,47.87234
162533,48.0
162567,48.0
162600,48.0
162633,48.0
162667,48.0
162700,48.0
162733,48.0
162767,48.0
162800,47.68212
162833,47.68212
162867,47.68212
162900,47.68212
162933,47.68212
162967,47.68212
163000,47.68212
163033,47.68212
163067,47.68212
163100,47.68212
163133,47.68212
163167,47.68212
163200,47.68212
163233,47.68212
163267,47.61905
163300,47.61905
163333,47.61905
163367,47.61905
163400,47.61905
163433,47.61905
163467,47.61905
163500,47.61905
163533,47.61905
163567,47.61905
163600,47.61905
163633,47.61905
163667,47.61905
163700,47.61905
163733,47.61905
163767,47.61905
163800,47.05882
163833,47.05882
163867,47.36842
163900,47.36842
163933,47.36842
163967,47.36842
164000,47.36842
164033,47.36842
164067,47.36842
164100,47.36842
164133,47.36842
164167,47.36842
164200,47.36842
164233,47.36842
164267,47.36842
164300,47.36842
164333,47.36842
164367,47.36842
164400,47.36842
164433,47.36842
164467,47.36842
164500,47.36842
164533,47.36842
164567,47.36842
164600,47.36842
164633,47.36842
164667,47.36842
164700,47.36842
164733,46.15385
164767,46.15385
164800,46.15385
164833,46.15385
164867,46.15385
164900,46.15385
164933,46.15385
164967,46.15385
165000,46.15385
165033,45.0
165067,45.0
165100,45.0
165133,45.0
165167,45.0
165200,45.0
165233,45.0
165267,45.0
165300,45.0
165333,45.0
165367,45.0
165400,45.0
165433,45.0
165467,45.0
165500,48.91304
165533,48.91304
165567,48.91304
165600,48.91304
165633,48.91304
165667,48.91304
165700,48.91304
165733,48.91304
165767,48.91304
165800,48.91304
165833,48.91304
165867,48.91304
165900,48.91304
165933,48.91304
165967,48.91304
166000,48.91304
166033,48.91304
166067,48.91304
166100,48.91304
166133,48.91304
166167,48.91304
166200,47.05882
166233,47.05882
166267,47.05882
166300,47.05882
166333,47.05882
166367,47.05882
166400,47.05882
166433,47.05882
166467,47.05882
166500,49.18033
166533,49.18033
166567,49.18033
166600,49.18033
166633,48.91304
166667,48.91304
166700,48.91304
166733,48.91304
166767,48.91304
166800,48.91304
166833,48.91304
166867,48.91304
166900,48.91304
166933,48.91304
166967,48.91304
167000,48.91304
167033,48.91304
167067,48.91304
167100,48.91304
167133,48.91304
167167,48.91304
167200,48.91304
167233,52.94118
167267,52.94118
167300,52.94118
167333,52.94118
167367,52.94118
167400,52.94118
167433,52.94118
167467,52.94118
167500,54.54546
167533,54.54546
167567,54.54546
167600,54.54546
167633,54.54546
167667,54.54546
167700,54.54546
167733,54.54546
167767,54.54546
167800,54.54546
167833,54.54546
167867,54.54546
167900,54.54546
167933,54.54546
167967,54.54546
168000,54.54546
168033,54.54546
168067,54.54546
168100,54.54546
168133,54.54546
168167,54.54546
168200,54.54546
168233,57.75401
168267,57.75401
168300,57.75401
168333,57.75401
168367,57.75401
168400,57.75401
168433,57.75401
168467,57.75401
168500,57.75401
168533,57.75401
168567,57.75401
168600,57.75401
168633,57.75401
168667,57.75401
168700,57.75401
168733,57.75401
168767,57.75401
168800,60.40268
168833,60.40268
168867,60.40268
168900,60.40268
168933,60.40268
168967,60.40268
169000,60.40268
169033,60.40268
169067,60.40268
169100,60.40268
169133,60.40268
169167,60.40268
169200,60.40268
169233,60.40268
169267,60.40268
169300,60.40268
169333,60.40268
169367,60.40268
169400,60.40268
169433,60.40268
169467,60.40268
169500,60.40268
169533,60.40268
169567,60.40268
169600,60.40268
169633,60.40268
169667,60.40268
169700,60.40268
169733,60.40268
169767,60.40268
169800,60.40268
169833,60.40268
169867,60.40268
169900,54.27136
169933,54.27136
169967,54.27136
170000,54.27136
170033,54.27136
170067,54.27136
170100,57.32484
170133,57.32484
170167,57.32484
170200,57.32484
170233,57.32484
170267,57.32484
170300,57.32484
170333,57.32484
170367,57.32484
170400,57.32484
170433,57.32484
170467,57.32484
170500,57.32484
170533,57.32484
170567,56.96202
170600,56.96202
170633,56.96202
170667,56.96202
170700,56.96202
170733,56.96202
170767,56.96202
170800,56.96202
170833,56.96202
170867,56.96202
170900,56.96202
170933,56.96202
170967,56.96202
171000,56.96202
171033,56.96202
171067,56.96202
171100,57.44681
171133,57.44681
171167,57.44681
171200,57.44681
171233,57.44681
171267,57.44681
171300,57.44681
171333,57.44681
171367,57.44681
171400,57.44681
171433,57.44681
171467,57.44681
171500,55.55556
171533,55.55556
171567,55.55556
171600,55.55556
171633,55.55556
171667,55.55556
171700,59.34066
171733,59.34066
171767,59.34066
171800,59.66851
171833,59.66851
171867,59.66851
171900,59.66851
171933,59.66851
171967,59.66851
172000,59.66851
172033,59.66851
172067,59.66851
172100,59.66851
172133,59.66851
172167,59.66851
172200,59.66851
172233,59.66851
172267,59.66851
172300,62.06896999999999
172333,62.06896999999999
172367,62.42775
172400,62.42775
172433,62.42775
172467,62.42775
172500,62.42775
172533,62.42775
172567,62.42775
172600,62.42775
172633,62.42775
172667,62.42775
172700,62.42775
172733,62.42775
172767,62.42775
172800,62.42775
172833,62.42775
172867,62.42775
172900,62.42775
172933,62.42775
172967,65.28497
173000,65.28497
173033,65.28497
173067,65.28497
173100,65.28497
173133,65.28497
173167,65.28497
173200,65.28497
173233,65.28497
173267,65.28497
173300,65.28497
173333,65.28497
173367,65.06024000000001
173400,65.06024000000001
173433,65.06024000000001
173467,65.06024000000001
173500,65.06024000000001
173533,65.06024000000001
173567,65.06024000000001
173600,65.06024000000001
173633,65.06024000000001
173667,67.37968000000001
173700,67.37968000000001
173733,67.37968000000001
173767,67.37968000000001
173800,67.02128
173833,67.02128
173867,67.02128
173900,67.02128
173933,67.02128
173967,67.02128
174000,67.02128
174033,67.02128
174067,67.02128
174100,67.02128
174134,67.02128
174167,67.02128
174200,67.02128
174234,67.02128
174267,67.02128
174300,67.02128
174334,67.02128
174367,67.02128
174400,67.02128
174434,67.02128
174467,67.02128
174500,67.02128
174534,67.02128
174567,67.02128
174600,67.02128
174634,67.02128
174667,67.02128
174700,67.02128
174734,67.02128
174767,67.02128
174800,67.02128
174834,67.02128
174867,67.02128
174900,67.02128
174934,67.02128
174967,67.02128
175000,67.02128
175034,67.02128
175067,67.02128
175100,67.02128
175134,67.02128
175167,67.02128
175200,67.02128
175234,67.02128
175267,67.02128
175300,67.02128
175334,67.02128
175367,67.02128
175400,67.02128
175434,67.02128
175467,67.02128
175500,67.02128
175534,67.02128
175567,67.02128
175600,67.02128
175634,67.02128
175667,67.02128
175700,67.02128
175734,67.02128
175767,67.02128
175800,67.02128
175834,67.02128
175867,67.02128
175900,67.02128
175934,67.02128
175967,67.02128
176000,67.02128
176034,67.02128
176067,67.02128
176100,67.02128
176134,67.02128
176167,67.02128
176200,67.02128
176234,67.02128
176267,67.02128
176300,67.02128
176334,67.02128
176367,67.02128
176400,67.02128
176434,67.02128
176467,67.02128
176500,67.02128
176534,67.02128
176567,67.02128
176600,67.02128
176634,67.02128
176667,67.02128
176700,67.02128
176734,67.02128
176767,67.02128
176800,67.02128
176834,67.02128
176867,67.02128
176900,67.02128
176934,67.02128
176967,67.02128
177000,67.02128
177034,67.02128
177067,67.02128
177100,67.02128
177134,67.02128
177167,67.02128
177200,67.02128
177234,67.02128
177267,67.02128
177300,67.02128
177334,67.02128
177367,67.02128
177400,67.02128
177434,67.02128
177467,67.02128
177500,67.02128
177534,67.02128
177567,67.02128
177600,67.02128
177634,67.02128
177667,67.02128
177700,67.02128
177734,67.02128
177767,67.02128
177800,67.02128
177834,67.02128
177867,67.02128
177900,67.02128
177934,67.02128
177967,67.02128
178000,67.02128
178034,67.02128
178067,67.02128
178100,67.02128
178134,67.02128
178167,67.02128
178200,67.02128
178234,67.02128
178267,67.02128
178300,67.02128
178334,67.02128
178367,67.02128
178400,67.02128
178434,67.02128
178467,67.02128
178500,67.02128
178534,67.02128
178567,67.02128
178600,67.02128
178634,67.02128
178667,67.02128
178700,67.02128
178734,67.02128
178767,67.02128
178800,67.02128
178834,67.02128
178867,67.02128
178900,67.02128
178934,67.02128
178967,67.02128
179000,67.02128
179034,67.02128
179067,67.02128
179100,67.02128
179134,67.02128
179167,67.02128
179200,67.02128
179234,67.02128
179267,67.02128
179300,67.02128
179334,67.02128
179367,67.02128
179400,67.02128
179434,67.02128
179467,67.02128
179500,67.02128
179534,67.02128
179567,67.02128
179600,67.02128
179634,67.02128
179667,67.02128
179700,67.02128
179734,67.02128
179767,67.02128
179800,67.02128
179834,67.02128
179867,67.02128
179900,67.02128
179934,67.02128
179967,67.02128
180000,67.02128
180034,67.02128
180067,67.02128
180100,67.02128
180134,67.02128
180167,67.02128
180200,67.02128
180234,67.02128
180267,67.02128
180300,67.02128
180334,67.02128
180367,67.02128
180400,67.02128
180434,67.02128
180467,67.02128
180500,67.02128
180534,67.02128
180567,67.02128
180600,67.02128
180634,67.02128
180667,67.02128
180700,67.02128
180734,67.02128
180767,67.02128
180800,67.02128
180834,67.02128
180867,67.02128
180900,67.02128
