Time[ms],HR[bpm]
833,81.35593
867,81.35593
900,81.35593
933,81.35593
967,81.35593
1000,81.35593
1033,81.35593
1067,81.40704000000002
1100,81.40704000000002
1133,81.40704000000002
1167,81.40704000000002
1200,81.40704000000002
1233,81.40704000000002
1267,81.35593
1300,81.35593
1333,81.35593
1367,81.35593
1400,81.35593
1433,81.35593
1467,81.81818
1500,81.81818
1533,81.35593
1567,81.35593
1600,85.26316
1633,85.26316
1667,85.71429
1700,85.71429
1733,85.26316
1767,85.26316
1800,85.26316
1833,85.26316
1867,84.81676
1900,100.5587
1933,100.5587
1967,100.5587
2000,100.5587
2033,100.5587
2067,100.5587
2100,100.5587
2133,100.5587
2167,100.5587
2200,100.5587
2233,100.5587
2267,100.5587
2300,100.5587
2333,100.5587
2367,100.5587
2400,102.0619
2433,102.0619
2467,102.0619
2500,102.0619
2533,102.0619
2567,102.0619
2600,102.0619
2633,102.0619
2667,102.0619
2700,102.0619
2733,102.0619
2767,101.1236
2800,101.1236
2833,101.1236
2867,103.125
2900,103.125
2933,103.125
2967,103.125
3000,103.125
3033,103.125
3067,103.125
3100,103.125
3133,112.5
3167,112.5
3200,112.5
3233,112.5
3267,112.5
3300,111.8644
3333,113.089
3367,113.089
3400,113.089
3433,113.089
3467,113.089
3500,113.089
3533,113.089
3567,113.089
3600,113.089
3633,113.089
3667,113.089
3700,113.089
3733,113.089
3767,113.089
3800,113.7931
3833,113.7931
3867,113.7931
3900,113.7931
3933,113.7931
3967,113.7931
4000,113.7931
4033,113.7931
4067,113.1429
4100,109.0909
4133,108.5427
4167,108.5427
4200,108.5427
4233,108.5427
4267,108.5427
4300,108.5427
4333,113.7931
4367,113.7931
4400,113.7931
4433,113.7931
4467,113.7931
4500,113.7931
4533,113.7931
4567,113.7931
4600,113.7931
4633,113.7931
4667,113.6842
4700,113.6842
4733,113.6842
4767,113.6842
4800,113.6842
4833,113.6842
4867,113.6842
4900,113.6842
4933,113.6842
4967,113.6842
5000,113.6842
5033,113.6842
5067,113.6842
5100,113.6842
5133,113.6842
5167,113.1429
5200,113.1429
5233,113.1429
5267,111.9171
5300,111.9171
5333,111.9171
5367,111.9171
5400,111.9171
5433,111.9171
5467,111.9171
5500,111.9171
5533,111.9171
5567,111.9171
5600,111.9171
5633,111.9171
5667,111.236
5700,111.8644
5733,111.8644
5767,111.8644
5800,111.8644
5833,111.8644
5867,111.8644
5900,109.6447
5933,109.6447
5967,109.6447
6000,109.6447
6033,109.6447
6067,110.2041
6100,110.2041
6133,110.2041
6167,99.44752
6200,99.44752
6233,89.50276
6267,89.50276
6300,89.50276
6333,89.50276
6367,89.50276
6400,89.50276
6433,89.50276
6467,89.50276
6500,89.50276
6533,89.50276
6567,89.50276
6600,89.50276
6633,89.50276
6667,89.50276
6700,86.74699
6733,86.74699
6767,86.74699
6800,86.74699
6833,83.50516
6867,83.50516
6900,83.50516
6933,83.50516
6967,83.50516
7000,83.50516
7033,83.50516
7067,83.50516
7100,83.50516
7133,83.50516
7167,83.50516
7200,81.81818
7233,81.81818
7267,81.81818
7300,81.81818
7333,81.81818
7367,81.81818
7400,81.81818
7433,81.81818
7467,81.81818
7500,81.81818
7533,81.81818
7567,81.81818
7600,81.81818
7633,81.81818
7667,81.81818
7700,81.81818
7733,81.81818
7767,81.81818
7800,77.77778
7833,77.77778
7867,77.77778
7900,77.77778
7933,77.77778
7967,77.77778
8000,77.77778
8033,66.66666
8067,66.66666
8100,66.66666
8133,66.66666
8167,66.66666
8200,66.66666
8233,66.66666
8267,60.40268
8300,60.40268
8333,60.40268
8367,55.38462
8400,55.38462
8433,55.38462
8467,55.38462
8500,55.38462
8533,55.38462
8567,55.38462
8600,55.38462
8633,55.38462
8667,55.38462
8700,50.27933
8733,50.27933
8767,50.27933
8800,50.27933
8833,50.27933
8867,50.27933
8900,50.27933
8933,50.27933
8967,50.27933
9000,50.27933
9033,50.27933
9067,50.27933
9100,50.27933
9133,50.27933
9167,50.27933
9200,50.27933
9233,48.0
9267,48.0
9300,48.0
9333,48.0
9367,50.0
9400,50.0
9433,50.0
9467,50.27933
9500,50.27933
9533,50.27933
9567,50.0
9600,50.0
9633,50.0
9667,50.0
9700,50.0
9733,50.0
9767,50.0
9800,50.27933
9833,50.27933
9867,50.27933
9900,50.27933
9933,50.27933
9967,50.27933
10000,50.27933
10033,50.27933
10067,50.27933
10100,50.27933
10133,50.27933
10167,50.27933
10200,51.79856
10233,51.79856
10267,51.79856
10300,51.79856
10333,51.79856
10367,51.79856
10400,51.79856
10433,51.79856
10467,51.79856
10500,51.72414000000001
10533,51.72414000000001
10567,51.72414000000001
10600,51.72414000000001
10633,51.72414000000001
10667,51.72414000000001
10700,51.72414000000001
10733,51.72414000000001
10767,51.72414000000001
10800,51.72414000000001
10833,51.72414000000001
10867,52.02312
10900,52.02312
10933,52.02312
10967,52.02312
11000,52.02312
11033,52.02312
11067,52.02312
11100,52.02312
11133,52.02312
11167,52.02312
11200,52.02312
11233,52.02312
11267,52.02312
11300,52.02312
11333,52.02312
11367,52.02312
11400,53.73134
11433,53.73134
11467,53.73134
11500,53.73134
11533,54.54546
11567,54.54546
11600,54.54546
11633,54.54546
11667,54.54546
11700,54.54546
11733,54.54546
11767,54.54546
11800,54.54546
11833,54.54546
11867,54.54546
11900,54.54546
11933,54.54546
11967,54.54546
12000,54.54546
12033,54.54546
12067,54.54546
12100,54.54546
12133,54.54546
12167,54.54546
12200,54.54546
12233,54.87805
12267,56.5445
12300,56.5445
12333,56.5445
12367,56.5445
12400,56.5445
12433,56.5445
12467,56.5445
12500,56.5445
12533,56.5445
12567,56.5445
12600,56.5445
12633,56.5445
12667,56.5445
12700,56.5445
12733,55.21473
12767,55.21473
12800,55.21473
12833,55.21473
12867,55.21473
12900,55.21473
12933,55.21473
12967,55.21473
13000,55.21473
13033,55.21473
13067,55.21473
13100,57.44681
13133,57.44681
13167,57.44681
13200,57.44681
13233,57.44681
13267,57.44681
13300,57.44681
13333,57.44681
13367,57.44681
13400,57.44681
13433,57.44681
13467,57.44681
13500,57.44681
13533,57.44681
13567,57.44681
13600,57.44681
13633,57.44681
13667,63.380280000000006
13700,63.380280000000006
13733,63.380280000000006
13767,63.380280000000006
13800,63.380280000000006
13833,63.380280000000006
13867,63.380280000000006
13900,65.06024000000001
13933,65.06024000000001
13967,65.06024000000001
14000,65.06024000000001
14033,65.06024000000001
14067,65.06024000000001
14100,65.06024000000001
14133,65.06024000000001
14167,65.06024000000001
14200,65.06024000000001
14233,65.06024000000001
14267,65.06024000000001
14300,65.06024000000001
14333,65.06024000000001
14367,65.06024000000001
14400,65.06024000000001
14433,65.06024000000001
14467,65.06024000000001
14500,65.06024000000001
14533,65.06024000000001
14567,65.06024000000001
14600,65.06024000000001
14633,65.06024000000001
14667,65.06024000000001
14700,65.06024000000001
14733,65.96859
14767,65.96859
14800,65.96859
14833,65.96859
14867,65.96859
14900,65.96859
14933,65.96859
14967,65.96859
15000,65.96859
15033,65.96859
15067,65.96859
15100,65.96859
15133,65.96859
15167,65.96859
15200,66.66666
15233,66.66666
15267,66.66666
15300,66.66666
15333,66.66666
15367,66.66666
15400,66.66666
15433,66.66666
15467,66.66666
15500,66.66666
15533,66.66666
15567,66.66666
15600,66.66666
15633,66.66666
15667,66.66666
15700,66.66666
15733,66.66666
15767,66.66666
15800,66.66666
15833,66.66666
15867,66.66666
15900,66.66666
15933,66.66666
15967,66.66666
16000,66.66666
16033,66.66666
16067,62.68657
16100,62.68657
16133,62.37624
16167,64.28571
16200,64.67066
16233,65.06024000000001
16267,65.06024000000001
16300,65.06024000000001
16333,65.06024000000001
16367,65.45454000000001
16400,65.45454000000001
16433,65.45454000000001
16467,65.45454000000001
16500,65.45454000000001
16533,65.45454000000001
16567,65.45454000000001
16600,65.45454000000001
16633,65.45454000000001
16667,65.45454000000001
16700,65.45454000000001
16733,65.45454000000001
16767,65.45454000000001
16800,65.45454000000001
16833,65.45454000000001
16867,65.85365999999999
16900,65.85365999999999
16933,65.85365999999999
16967,65.85365999999999
17000,65.85365999999999
17033,65.85365999999999
17067,65.85365999999999
17100,65.85365999999999
17133,65.85365999999999
17167,65.85365999999999
17200,62.68657
17233,62.68657
17267,62.68657
17300,62.68657
17333,62.06896999999999
17367,62.06896999999999
17400,62.06896999999999
17433,62.06896999999999
17467,62.06896999999999
17500,62.06896999999999
17533,62.06896999999999
17567,62.06896999999999
17600,62.06896999999999
17633,62.06896999999999
17667,62.06896999999999
17700,62.06896999999999
17733,62.06896999999999
17767,62.06896999999999
17800,62.06896999999999
17833,62.06896999999999
17867,62.06896999999999
17900,62.06896999999999
17933,62.06896999999999
17967,62.06896999999999
18000,62.06896999999999
18033,62.06896999999999
18067,62.06896999999999
18100,62.06896999999999
18133,62.06896999999999
18167,62.06896999999999
18200,61.76471
18233,60.67416
18267,60.67416
18300,60.67416
18333,60.67416
18367,60.67416
18400,60.67416
18433,60.67416
18467,60.67416
18500,60.67416
18533,60.67416
18567,58.37838000000001
18600,58.37838000000001
18633,58.37838000000001
18667,58.37838000000001
18700,58.37838000000001
18733,58.37838000000001
18767,58.37838000000001
18800,58.37838000000001
18833,58.37838000000001
18867,58.37838000000001
18900,58.37838000000001
18933,58.37838000000001
18967,58.37838000000001
19000,58.37838000000001
19033,58.37838000000001
19067,58.37838000000001
19100,56.25
19133,55.90062
19167,55.90062
19200,55.90062
19233,55.90062
19267,55.55556
19300,55.55556
19333,55.55556
19367,55.55556
19400,55.55556
19433,55.55556
19467,55.55556
19500,56.25
19533,56.25
19567,56.25
19600,56.25
19633,56.25
19667,56.25
19700,56.25
19733,56.25
19767,56.25
19800,56.25
19833,56.25
19867,56.25
19900,56.25
19933,53.25444
19967,53.25444
20000,53.25444
20033,53.25444
20067,53.25444
20100,53.25444
20133,53.25444
20167,53.25444
20200,53.25444
20233,53.25444
20267,53.25444
20300,53.25444
20333,53.25444
20367,53.25444
20400,53.25444
20433,53.25444
20467,54.54546
20500,54.54546
20533,54.54546
20567,54.54546
20600,54.54546
20633,54.54546
20667,54.54546
20700,51.42857
20733,51.42857
20767,51.42857
20800,51.42857
20833,51.42857
20867,51.42857
20900,51.42857
20933,51.42857
20967,51.42857
21000,51.42857
21033,51.42857
21067,51.42857
21100,51.42857
21133,51.42857
21167,51.42857
21200,51.42857
21233,51.42857
21267,51.42857
21300,54.0
21333,54.0
21367,54.0
21400,54.0
21433,54.0
21467,56.25
21500,56.25
21533,56.25
21567,56.25
21600,56.25
21633,56.25
21667,56.25
21700,56.25
21733,56.25
21767,62.06896999999999
21800,62.06896999999999
21833,62.06896999999999
21867,62.06896999999999
21900,62.06896999999999
21933,62.42775
21967,62.42775
22000,62.42775
22033,62.42775
22067,62.42775
22100,62.42775
22133,62.42775
22167,62.42775
22200,67.74194
22233,68.10811
22267,68.10811
22300,68.10811
22333,68.10811
22367,68.10811
22400,77.83784
22433,77.83784
22467,77.83784
22500,77.83784
22533,77.83784
22567,77.83784
22600,82.23351
22633,77.83784
22667,81.40704000000002
22700,82.23351
22733,78.26087
22767,80.19802
22800,80.59702
22833,80.59702
22867,80.59702
22900,86.22755
22933,86.22755
22967,97.00599
23000,97.00599
23033,97.00599
23067,102.2727
23100,102.2727
23133,102.2727
23167,102.2727
23200,102.2727
23233,102.2727
23267,102.2727
23300,102.2727
23333,102.2727
23367,102.2727
23400,102.2727
23433,102.2727
23467,105.8824
23500,106.4516
23533,106.4516
23567,101.6949
23600,101.6949
23633,101.6949
23667,101.6949
23700,101.6949
23733,101.5385
23767,101.6949
23800,101.6949
23833,101.6949
23867,91.52542
23900,91.52542
23933,92.04546
23967,88.66995
24000,88.66995
24033,98.78049
24067,98.78049
24100,98.78049
24133,98.78049
24167,98.78049
24200,98.78049
24233,98.78049
24267,98.78049
24300,98.78049
24333,98.78049
24367,98.78049
24400,98.78049
24433,98.78049
24467,98.78049
24500,98.78049
24533,98.78049
24567,98.78049
24600,98.78049
24633,98.78049
24667,98.78049
24700,98.78049
24733,98.78049
24767,98.78049
24800,98.78049
24833,98.78049
24867,94.24084
24900,94.24084
24933,94.73684
24967,94.73684
25000,94.73684
25033,94.73684
25067,94.73684
25100,94.73684
25133,85.26316
25167,85.26316
25200,85.26316
25233,85.26316
25267,85.26316
25300,85.26316
25333,88.88889
25367,88.88889
25400,88.88889
25433,77.77778
25467,77.77778
25500,77.77778
25533,77.77778
25567,77.77778
25600,77.77778
25633,77.41936
25667,77.41936
25700,77.41936
25733,77.41936
25767,77.41936
25800,77.41936
25833,77.41936
25867,77.41936
25900,77.41936
25933,77.41936
25967,77.41936
26000,77.41936
26033,77.41936
26067,77.41936
26100,77.41936
26133,77.41936
26167,77.41936
26200,77.41936
26233,77.41936
26267,81.81818
26300,81.81818
26333,81.81818
26367,81.81818
26400,81.81818
26433,81.81818
26467,81.81818
26500,81.81818
26533,81.81818
26567,81.81818
26600,81.81818
26633,81.81818
26667,84.70588000000002
26700,83.23699
26733,83.23699
26767,83.23699
26800,83.23699
26833,83.23699
26867,83.23699
26900,84.375
26933,84.375
26967,84.375
27000,84.375
27033,84.375
27067,84.375
27100,84.375
27133,84.375
27167,84.375
27200,84.375
27233,84.375
27267,84.375
27300,84.375
27333,86.22755
27367,86.22755
27400,86.22755
27433,86.22755
27467,86.22755
27500,86.22755
27533,85.71429
27567,85.71429
27600,85.2071
27633,85.2071
27667,85.2071
27700,85.2071
27733,84.70588000000002
27767,84.70588000000002
27800,84.70588000000002
27833,83.50516
27867,83.50516
27900,83.50516
27933,83.50516
27967,83.50516
28000,83.07692
28033,83.07692
28067,82.65306
28100,82.65306
28133,82.65306
28167,78.68852
28200,78.68852
28233,78.68852
28267,78.68852
28300,78.68852
28333,78.26087
28367,78.26087
28400,78.26087
28433,78.26087
28467,78.26087
28500,78.26087
28533,78.26087
28567,79.41176999999998
28600,78.68852
28633,78.68852
28667,78.68852
28700,78.68852
28733,78.68852
28767,78.68852
28800,78.68852
28833,78.68852
28867,78.68852
28900,78.68852
28933,78.68852
28967,78.68852
29000,78.68852
29033,78.68852
29067,78.68852
29100,78.68852
29133,78.68852
29167,78.68852
29200,78.68852
29233,80.19802
29267,80.19802
29300,78.68852
29333,78.68852
29367,78.68852
29400,78.68852
29433,78.68852
29467,78.68852
29500,78.68852
29533,78.68852
29567,78.68852
29600,79.12088
29633,79.12088
29667,79.12088
29700,79.12088
29733,79.12088
29767,79.12088
29800,79.12088
29833,79.12088
29867,79.12088
29900,79.12088
29933,78.26087
29967,89.44099
30000,89.44099
30033,89.44099
30067,86.17021
30100,86.17021
30133,86.17021
30167,86.17021
30200,86.17021
30233,85.71429
30267,85.71429
30300,85.71429
30333,85.71429
30367,85.71429
30400,85.71429
30433,85.71429
30467,85.71429
30500,85.71429
30533,85.71429
30567,85.71429
30600,83.72093000000002
30633,85.71429
30667,85.71429
30700,85.71429
30733,85.71429
30767,85.71429
30800,85.71429
30833,85.71429
30867,85.71429
30900,85.71429
30933,85.71429
30967,85.71429
31000,85.71429
31033,85.71429
31067,89.10891
31100,89.10891
31133,89.10891
31167,88.04348
31200,88.04348
31233,88.04348
31267,88.04348
31300,88.04348
31333,88.04348
31367,88.04348
31400,88.04348
31433,88.04348
31467,88.04348
31500,88.04348
31533,88.04348
31567,88.04348
31600,88.04348
31633,88.04348
31667,89.10891
31700,89.10891
31733,89.10891
31767,89.01099
31800,89.01099
31833,89.01099
31867,89.01099
31900,89.01099
31933,89.01099
31967,89.01099
32000,89.01099
32033,89.01099
32067,89.01099
32100,89.01099
32133,89.01099
32167,89.01099
32200,89.01099
32233,89.01099
32267,92.30769
32300,92.30769
32333,92.30769
32367,92.30769
32400,92.30769
32433,92.57143
32467,92.57143
32500,92.57143
32533,92.57143
32567,92.57143
32600,92.57143
32633,94.24084
32667,94.24084
32700,94.24084
32733,94.24084
32767,94.24084
32800,94.24084
32833,94.24084
32867,94.24084
32900,94.24084
32933,94.24084
32967,94.24084
33000,94.24084
33033,94.24084
33067,94.24084
33100,93.64162
33133,93.64162
33167,93.64162
33200,94.73684
33233,94.73684
33267,94.73684
33300,94.73684
33333,94.73684
33367,94.73684
33400,94.73684
33433,94.73684
33467,94.73684
33500,94.73684
33533,94.73684
33567,94.73684
33600,94.73684
33633,94.73684
33667,94.73684
33700,102.5316
33733,102.5316
33767,102.5316
33800,102.5316
33833,101.6949
33867,101.6949
33900,101.6949
33933,101.6949
33967,101.6949
34000,101.6949
34033,101.6949
34067,101.6949
34100,101.6949
34133,101.6949
34167,101.6949
34200,101.6949
34233,101.6949
34267,101.6949
34300,101.6949
34333,101.6949
34367,101.6949
34400,102.0619
34433,102.0619
34467,102.0619
34500,102.0619
34533,102.0619
34567,102.0619
34600,102.0619
34633,102.0619
34667,102.0619
34700,102.0619
34733,102.0619
34767,102.8571
34800,102.8571
34833,102.8571
34867,104.7619
34900,104.7619
34933,104.7619
34967,104.7619
35000,104.7619
35033,104.7619
35067,104.7619
35100,104.7619
35133,104.7619
35167,104.7619
35200,104.7619
35233,104.7619
35267,104.7619
35300,104.7619
35333,106.4039
35367,104.7619
35400,105.8824
35433,105.8824
35467,105.8824
35500,105.8824
35533,105.8824
35567,105.8824
35600,105.8824
35633,105.8824
35667,105.8824
35700,105.8824
35733,105.8824
35767,105.8824
35800,105.8824
35833,105.8824
35867,105.8824
35900,105.8824
35933,105.8824
35967,105.8824
36000,112.5
36033,112.5
36067,112.5
36100,112.5
36133,112.5
36167,111.8644
36200,111.8644
36233,111.8644
36267,111.8644
36300,111.8644
36333,111.8644
36367,111.8644
36400,111.8644
36433,111.8644
36467,111.8644
36500,111.8644
36533,111.8644
36567,111.8644
36600,111.8644
36633,109.6447
36667,109.6447
36700,109.6447
36733,109.6447
36767,109.6447
36800,109.6447
36833,109.6447
36867,109.6447
36900,109.3923
36933,109.3923
36967,109.3923
37000,109.3923
37033,109.3923
37067,109.3923
37100,109.3923
37133,109.3923
37167,109.3923
37200,109.3923
37233,109.3923
37267,109.3923
37300,109.3923
37333,109.3923
37367,109.3923
37400,109.3923
37433,104.2105
37467,104.2105
37500,104.2105
37533,104.2105
37567,104.2105
37600,104.2105
37633,104.2105
37667,104.2105
37700,104.2105
37733,104.2105
37767,104.2105
37800,104.2105
37833,104.2105
37867,104.2105
37900,105.8824
37933,105.8824
37967,105.8824
38000,105.8824
38033,105.8824
38067,105.8824
38100,105.8824
38133,105.8824
38167,105.8824
38200,105.8824
38233,105.8824
38267,105.8824
38300,105.8824
38333,105.8824
38367,105.8824
38400,105.8824
38433,105.8824
38467,105.8824
38500,103.6649
38533,103.6649
38567,103.6649
38600,103.6649
38633,103.6649
38667,103.6649
38700,103.6649
38733,103.6649
38767,103.6649
38800,103.6649
38833,103.6649
38867,103.6649
38900,103.6649
38933,103.6649
38967,102.2727
39000,102.2727
39033,102.2727
39067,102.2727
39100,102.2727
39133,102.2727
39167,102.2727
39200,102.2727
39233,102.2727
39267,102.2727
39300,99.0
39333,99.0
39367,99.0
39400,99.0
39433,99.0
39467,98.9011
39500,98.9011
39533,98.9011
39567,98.9011
39600,98.9011
39633,98.9011
39667,98.9011
39700,98.9011
39733,98.9011
39767,98.9011
39800,98.9011
39833,98.9011
39867,98.9011
39900,99.0
39933,99.0
39967,99.0
40000,99.0
40033,99.0
40067,98.9011
40100,98.9011
40133,98.9011
40167,98.9011
40200,98.9011
40233,98.9011
40267,98.9011
40300,98.9011
40333,98.9011
40367,98.9011
40400,100.5076
40433,100.5076
40467,100.5076
40500,100.5076
40533,99.49749
40567,99.49749
40600,99.49749
40633,99.49749
40667,98.36066
40700,97.82609
40733,97.82609
40767,97.82609
40800,97.82609
40833,97.82609
40867,97.82609
40900,97.82609
40933,97.82609
40967,97.82609
41000,97.82609
41033,97.82609
41067,97.82609
41100,97.82609
41133,97.82609
41167,97.82609
41200,95.85799
41233,95.85799
41267,95.85799
41300,93.26425
41333,93.26425
41367,93.26425
41400,93.26425
41433,93.26425
41467,93.26425
41500,93.26425
41533,93.26425
41567,93.26425
41600,93.26425
41633,93.26425
41667,93.26425
41700,91.52542
41733,91.52542
41767,91.52542
41800,91.52542
41833,81.35593
41867,81.35593
41900,81.35593
41933,81.35593
41967,81.35593
42000,81.35593
42033,81.35593
42067,81.35593
42100,81.35593
42133,81.35593
42167,78.75
42200,78.75
42233,78.75
42267,77.41936
42300,77.41936
42333,77.41936
42367,77.41936
42400,77.41936
42433,77.41936
42467,77.41936
42500,77.41936
42533,77.41936
42567,77.41936
42600,77.41936
42633,77.41936
42667,77.41936
42700,77.41936
42733,77.41936
42767,77.41936
42800,75.90361999999998
42833,65.06024000000001
42867,65.06024000000001
42900,65.06024000000001
42933,65.06024000000001
42967,65.06024000000001
43000,65.06024000000001
43033,65.06024000000001
43067,65.45454000000001
43100,65.45454000000001
43133,65.45454000000001
43167,65.45454000000001
43200,65.45454000000001
43233,65.45454000000001
43267,63.31658
43300,63.31658
43333,63.31658
43367,63.31658
43400,63.31658
43433,63.63636
43467,58.69565
43500,58.69565
43533,58.69565
43567,58.69565
43600,58.69565
43633,58.69565
43667,58.69565
43700,58.69565
43733,58.69565
43767,58.69565
43800,58.69565
43833,58.69565
43867,58.69565
43900,58.69565
43933,56.96202
43967,56.96202
44000,56.96202
44033,56.96202
44067,56.96202
44100,56.96202
44133,56.96202
44167,59.01639
44200,59.01639
44233,59.01639
44267,59.01639
44300,59.01639
44333,59.01639
44367,59.01639
44400,60.67416
44433,60.67416
44467,60.67416
44500,60.67416
44533,60.67416
44567,60.67416
44600,60.67416
44633,60.67416
44667,60.67416
44700,60.67416
44733,60.67416
44767,60.67416
44800,63.82979
44833,63.82979
44867,63.52941
44900,63.52941
44933,63.52941
44967,63.15789
45000,63.15789
45033,63.15789
45067,63.15789
45100,63.15789
45133,63.15789
45167,63.15789
45200,63.15789
45233,63.15789
45267,63.15789
45300,63.15789
45333,63.15789
45367,63.15789
45400,63.15789
45433,62.7907
45467,62.7907
45500,62.7907
45533,62.7907
45567,62.7907
45600,62.7907
45633,62.7907
45667,62.7907
45700,62.7907
45733,62.7907
45767,62.7907
45800,62.7907
45833,62.7907
45867,62.7907
45900,62.7907
45933,62.7907
45967,68.70229
46000,68.70229
46033,68.70229
46067,68.70229
46100,68.70229
46133,68.70229
46167,63.905330000000006
46200,63.905330000000006
46233,63.905330000000006
46267,63.905330000000006
46300,63.905330000000006
46333,74.55621
46367,74.55621
46400,74.55621
46433,74.55621
46467,85.2071
46500,85.2071
46533,85.2071
46567,89.50276
46600,89.50276
46633,89.50276
46667,89.50276
46700,89.50276
46733,89.50276
46767,89.50276
46800,89.50276
46833,89.50276
46867,89.50276
46900,89.50276
46933,89.50276
46967,102.5907
47000,102.5907
47033,102.5907
47067,102.5907
47100,102.5907
47133,102.5907
47167,103.125
47200,103.125
47233,103.125
47267,103.125
47300,103.125
47333,103.125
47367,109.3923
47400,109.3923
47433,109.3923
47467,109.3923
47500,119.337
47533,129.2818
47567,129.2818
47600,129.2818
47633,129.2818
47667,129.2818
47700,131.9372
47733,131.9372
47767,131.9372
47800,131.9372
47833,131.9372
47867,131.9372
47900,131.9372
47933,131.9372
47967,131.9372
48000,131.9372
48033,131.9372
48067,131.9372
48100,141.3613
48133,141.3613
48167,141.57299999999995
48200,141.57299999999995
48233,150.7853
48267,150.7853
48300,150.7853
48333,150.7853
48367,150.7853
48400,150.7853
48433,150.7853
48467,150.7853
48500,150.7853
48533,150.7853
48567,150.7853
48600,150.0
48633,150.0
48667,150.0
48700,148.4536
48733,148.4536
48767,139.1753
48800,139.1753
48833,139.1753
48867,139.1753
48900,139.1753
48933,139.1753
48967,139.2265
49000,139.2265
49033,139.2265
49067,139.2265
49100,139.2265
49133,139.2265
49167,139.2265
49200,139.2265
49233,139.2265
49267,139.2265
49300,139.2265
49333,139.2265
49367,139.2265
49400,138.4615
49433,138.4615
49467,138.4615
49500,138.4615
49533,127.9188
49567,127.9188
49600,127.9188
49633,127.9188
49667,127.9188
49700,127.9188
49733,127.9188
49767,127.9188
49800,127.1739
49833,127.1739
49867,127.1739
49900,127.1739
49933,127.1739
49967,127.1739
50000,127.2727
50033,127.2727
50067,127.2727
50100,127.2727
50133,127.2727
50167,127.2727
50200,127.2727
50233,125.8064
50267,125.8064
50300,125.8064
50333,125.8064
50367,125.8064
50400,125.8064
50433,126.6332
50467,126.6332
50500,126.6332
50533,126.6332
50567,126.6332
50600,126.6332
50633,124.4681
50667,124.4681
50700,124.4681
50733,124.4681
50767,124.4681
50800,124.4681
50833,124.4681
50867,124.4681
50900,124.7525
50933,124.7525
50967,124.7525
51000,123.8095
51033,123.8095
51067,123.8095
51100,123.8095
51133,123.8095
51167,123.8095
51200,123.8095
51233,123.8095
51267,123.8095
51300,123.8095
51333,123.8095
51367,124.1379
51400,124.1379
51433,122.5131
51467,122.5131
51500,122.5131
51533,122.5131
51567,122.5131
51600,122.5131
51633,122.5131
51667,122.5131
51700,122.5131
51733,122.5131
51767,124.1379
51800,124.1379
51833,121.875
51867,121.875
51900,121.875
51933,121.875
51967,121.875
52000,121.875
52033,121.875
52067,121.875
52100,121.875
52133,121.875
52167,132.3529
52200,131.25
52233,131.25
52267,131.25
52300,131.25
52333,131.25
52367,131.25
52400,131.25
52433,131.25
52467,131.25
52500,131.25
52533,131.25
52567,131.25
52600,130.0
52633,130.5699
52667,130.5699
52700,130.5699
52733,130.5699
52767,130.5699
52800,139.1753
52833,139.1753
52867,139.1753
52900,139.8964
52933,139.8964
52967,139.8964
53000,139.2265
53033,139.2265
53067,139.2265
53100,129.2818
53133,129.2818
53167,129.2818
53200,129.2818
53233,129.2818
53267,129.2818
53300,124.7525
53333,124.7525
53367,124.7525
53400,123.1579
53433,113.6842
53467,113.6842
53500,113.6842
53533,113.089
53567,113.089
53600,113.089
53633,113.089
53667,113.089
53700,113.089
53733,113.089
53767,111.236
53800,111.236
53833,111.236
53867,111.236
53900,111.236
53933,101.1236
53967,101.1236
54000,99.49749
54033,101.1236
54067,101.1236
54100,101.1236
54133,101.1236
54167,101.1236
54200,96.42857
54233,96.42857
54267,96.42857
54300,96.42857
54333,96.42857
54367,96.42857
54400,96.42857
54433,96.42857
54467,85.71429
54500,85.71429
54533,90.0
54567,80.89888
54600,90.0
54633,80.0
54667,90.0
54700,90.0
54733,90.0
54767,90.0
54800,77.83784
54833,77.83784
54867,77.83784
54900,77.83784
54933,77.83784
54967,77.83784
55000,77.83784
55033,77.83784
55067,77.83784
55100,77.83784
55133,77.83784
55167,77.83784
55200,77.83784
55233,77.83784
55267,77.83784
55300,77.83784
55333,77.83784
55367,77.83784
55400,77.83784
55433,77.83784
55467,79.74683
55500,79.74683
55533,68.35443000000001
55567,68.35443000000001
55600,68.35443000000001
55633,68.35443000000001
55667,68.85246
55700,68.85246
55733,68.85246
55767,68.85246
55800,68.85246
55833,68.85246
55867,68.85246
55900,68.85246
55933,68.85246
55967,68.85246
56000,68.85246
56033,68.85246
56067,68.85246
56100,68.85246
56133,68.85246
56167,68.85246
56200,68.85246
56233,68.85246
56267,68.85246
56300,68.85246
56333,68.85246
56367,69.67742
56400,69.67742
56433,69.67742
56467,69.67742
56500,69.67742
56533,69.23076999999999
56567,69.23076999999999
56600,69.23076999999999
56633,69.61326
56667,69.61326
56700,69.61326
56733,59.66851
56767,59.66851
56800,59.66851
56833,59.66851
56867,59.66851
56900,59.66851
56933,59.66851
56967,59.66851
57000,59.66851
57033,59.66851
57067,59.66851
57100,59.66851
57133,59.66851
57167,59.66851
57200,59.66851
57233,59.66851
57267,60.0
57300,64.67066
57333,64.67066
57367,64.67066
57400,64.67066
57433,64.67066
57467,64.67066
57500,64.67066
57533,64.67066
57567,64.67066
57600,64.67066
57633,64.67066
57667,64.67066
57700,64.67066
57733,64.67066
57767,64.67066
57800,64.67066
57833,64.67066
57867,64.67066
57900,64.67066
57933,64.67066
57967,64.67066
58000,64.67066
58033,64.67066
58067,64.67066
58100,64.67066
58133,64.67066
58167,65.28497
58200,65.28497
58233,65.28497
58267,65.28497
58300,65.28497
58333,65.28497
58367,65.28497
58400,65.28497
58433,65.28497
58467,65.28497
58500,65.28497
58533,65.28497
58567,63.905330000000006
58600,63.905330000000006
58633,53.25444
58667,53.25444
58700,53.25444
58733,53.25444
58767,53.25444
58800,53.25444
58833,53.25444
58867,53.25444
58900,53.25444
58933,56.25
58967,56.25
59000,56.25
59033,56.25
59067,56.25
59100,56.25
59133,56.25
59167,56.25
59200,56.25
59233,56.25
59267,56.5445
59300,65.96859
59333,65.96859
59367,64.28571
59400,64.28571
59433,64.28571
59467,64.28571
59500,64.28571
59533,68.10811
59567,68.10811
59600,68.10811
59633,68.10811
59667,68.10811
59700,68.10811
59733,68.10811
59767,68.10811
59800,68.10811
59833,68.10811
59867,68.10811
59900,72.72726999999998
59933,72.72726999999998
59967,72.72726999999998
60000,72.72726999999998
60033,72.72726999999998
60067,81.81818
60100,81.81818
60133,93.50649
60167,93.50649
60200,93.50649
60233,93.50649
60267,93.50649
60300,105.1948
60333,107.7844
60367,107.7844
60400,107.7844
60433,107.7844
60467,107.7844
60500,107.7844
60533,107.7844
60567,107.7844
60600,107.7844
60633,107.7844
60667,107.7844
60700,107.7844
60733,107.7844
60767,107.7844
60800,107.7844
60833,108.7912
60867,109.6447
60900,109.6447
60933,109.6447
60967,109.6447
61000,109.6447
61033,109.6447
61067,109.6447
61100,108.7912
61133,108.7912
61167,108.7912
61200,108.7912
61233,108.7912
61267,108.1967
61300,108.1967
61333,108.1967
61367,108.5427
61400,108.5427
61433,108.5427
61467,108.5427
61500,108.5427
61533,108.5427
61567,117.1598
61600,117.1598
61633,117.1598
61667,117.1598
61700,117.1598
61733,117.1598
61767,117.1598
61800,117.1598
61833,117.1598
61867,117.1598
61900,117.1598
61933,117.1598
61967,117.1598
62000,117.1598
62033,117.1598
62067,117.1598
62100,127.8107
62133,129.2818
62167,129.2818
62200,129.2818
62233,129.2818
62267,129.2818
62300,129.2818
62333,129.2818
62367,129.2818
62400,126.0
62433,129.2818
62467,129.2818
62500,129.2818
62533,129.2818
62567,122.7273
62600,122.7273
62633,121.3483
62667,121.3483
62700,121.3483
62733,121.3483
62767,121.3483
62800,121.3483
62833,121.3483
62867,121.3483
62900,121.3483
62933,121.3483
62967,120.0
63000,120.0
63033,120.0
63067,110.7692
63100,110.2041
63133,110.2041
63167,110.2041
63200,110.2041
63233,110.2041
63267,110.2041
63300,110.2041
63333,110.2041
63367,110.2041
63400,108.1967
63433,108.1967
63467,108.1967
63500,108.1967
63533,108.1967
63567,108.1967
63600,108.1967
63633,108.1967
63667,108.1967
63700,107.6087
63733,107.6087
63767,105.8824
63800,103.6649
63833,103.6649
63867,103.6649
63900,103.6649
63933,103.6649
63967,103.6649
64000,103.6649
64033,103.6649
64067,103.6649
64100,103.6649
64133,103.6649
64167,103.6649
64200,103.6649
64233,107.1429
64267,107.1429
64300,96.42857
64333,96.42857
64367,96.42857
64400,96.42857
64433,85.71429
64467,85.71429
64500,85.26316
64533,85.71429
64567,95.2381
64600,94.73684
64633,94.73684
64667,94.73684
64700,94.73684
64733,94.73684
64767,94.73684
64800,94.73684
64833,94.73684
64867,85.26316
64900,85.26316
64933,85.26316
64967,88.34356
65000,90.50279
65033,90.50279
65067,90.50279
65100,90.50279
65133,90.50279
65167,90.50279
65200,90.50279
65233,90.50279
65267,90.50279
65300,90.50279
65333,90.50279
65367,90.50279
65400,90.50279
65433,90.50279
65467,90.50279
65500,90.50279
65533,90.50279
65567,91.83673
65600,91.83673
65633,91.83673
65667,91.83673
65700,91.83673
65733,91.83673
65767,91.83673
65800,91.83673
65833,91.83673
65867,95.29412
65900,94.73684
65933,94.73684
65967,94.73684
66000,94.73684
66033,94.73684
66067,94.73684
66100,94.73684
66133,94.73684
66167,94.73684
66200,94.73684
66233,94.73684
66267,90.56604
66300,90.56604
66333,90.56604
66367,89.01099
66400,89.01099
66433,89.01099
66467,89.01099
66500,89.01099
66533,89.01099
66567,89.01099
66600,89.01099
66633,89.01099
66667,89.01099
66700,89.01099
66733,89.01099
66767,89.01099
66800,89.01099
66833,89.01099
66867,89.01099
66900,89.01099
66933,89.01099
66967,89.01099
67000,89.01099
67033,89.10891
67067,89.10891
67100,89.10891
67133,87.09676999999998
67167,87.09676999999998
67200,86.63101999999998
67233,87.09676999999998
67267,87.09676999999998
67300,87.09676999999998
67333,87.09676999999998
67367,87.09676999999998
67400,86.63101999999998
67433,86.63101999999998
67467,86.63101999999998
67500,86.63101999999998
67533,86.63101999999998
67567,86.63101999999998
67600,86.63101999999998
67633,86.63101999999998
67667,87.09676999999998
67700,84.70588000000002
67733,84.70588000000002
67767,84.70588000000002
67800,84.70588000000002
67833,84.70588000000002
67867,83.50516
67900,83.50516
67933,83.50516
67967,83.50516
68000,83.50516
68033,83.50516
68067,83.50516
68100,83.50516
68133,83.50516
68167,83.50516
68200,83.50516
68233,82.75862
68267,82.75862
68300,82.75862
68333,82.75862
68367,82.75862
68400,82.75862
68433,82.75862
68467,72.4138
68500,72.4138
68533,72.4138
68567,72.4138
68600,72.4138
68633,72.4138
68667,72.4138
68700,72.4138
68733,72.4138
68767,72.4138
68800,72.4138
68833,72.4138
68867,72.4138
68900,75.52448000000003
68933,75.52448000000003
68967,75.52448000000003
69000,75.0
69033,75.0
69067,75.0
69100,75.0
69133,75.0
69167,75.0
69200,75.0
69233,75.0
69267,67.74194
69300,67.74194
69333,67.74194
69367,67.74194
69400,67.74194
69433,67.74194
69467,67.74194
69500,67.74194
69533,67.74194
69567,67.74194
69600,67.74194
69633,67.74194
69667,67.74194
69700,67.74194
69733,67.74194
69767,67.74194
69800,67.74194
69833,67.74194
69867,67.74194
69900,65.85365999999999
69933,65.85365999999999
69967,65.85365999999999
70000,65.85365999999999
70033,65.85365999999999
70067,65.85365999999999
70100,65.85365999999999
70133,65.85365999999999
70167,65.85365999999999
70200,65.85365999999999
70233,65.85365999999999
70267,65.85365999999999
70300,65.85365999999999
70333,65.85365999999999
70367,65.85365999999999
70400,65.85365999999999
70433,65.85365999999999
70467,65.85365999999999
70500,65.85365999999999
70533,65.85365999999999
70567,65.85365999999999
70600,65.85365999999999
70633,62.93706
70667,62.93706
70700,62.93706
70733,62.93706
70767,62.93706
70800,62.93706
70833,62.93706
70867,62.93706
70900,62.93706
70933,62.93706
70967,56.84211
71000,56.84211
71033,57.14286
71067,57.14286
71100,57.14286
71133,57.14286
71167,57.14286
71200,57.14286
71233,57.14286
71267,57.14286
71300,57.14286
71333,57.32484
71367,57.32484
71400,57.32484
71433,57.69231
71467,57.69231
71500,57.69231
71533,57.69231
71567,57.69231
71600,57.69231
71633,57.69231
71667,57.69231
71700,57.69231
71733,57.69231
71767,57.69231
71800,57.69231
71833,57.69231
71867,57.69231
71900,56.84211
71933,56.84211
71967,56.84211
72000,56.84211
72033,56.84211
72067,56.84211
72100,56.84211
72133,56.84211
72167,56.84211
72200,56.84211
72233,56.84211
72267,56.84211
72300,56.84211
72333,56.84211
72367,56.84211
72400,54.54546
72433,54.54546
72467,54.54546
72500,54.54546
72533,54.54546
72567,54.54546
72600,54.54546
72633,54.54546
72667,54.54546
72700,54.54546
72733,54.54546
72767,54.54546
72800,54.54546
72833,54.54546
72867,54.54546
72900,55.38462
72933,55.38462
72967,55.38462
73000,55.38462
73033,55.38462
73067,55.38462
73100,55.38462
73133,55.38462
73167,55.38462
73200,55.38462
73233,51.72414000000001
73267,51.72414000000001
73300,51.72414000000001
73333,51.72414000000001
73367,51.72414000000001
73400,51.72414000000001
73433,51.72414000000001
73467,51.72414000000001
73500,51.72414000000001
73533,51.72414000000001
73567,51.72414000000001
73600,51.72414000000001
73633,51.72414000000001
73667,54.82233000000001
73700,54.82233000000001
73733,54.82233000000001
73767,54.27136
73800,54.27136
73833,54.27136
73867,54.27136
73900,54.27136
73933,51.13636
73967,51.13636
74000,51.13636
74033,51.72414000000001
74067,51.72414000000001
74100,51.72414000000001
74133,51.72414000000001
74167,51.72414000000001
74200,51.72414000000001
74233,51.72414000000001
74267,51.72414000000001
74300,51.72414000000001
74333,51.72414000000001
74367,51.72414000000001
74400,51.72414000000001
74433,51.72414000000001
74467,51.72414000000001
74500,51.72414000000001
74533,51.72414000000001
74567,51.72414000000001
74600,51.72414000000001
74633,51.72414000000001
74667,51.13636
74700,55.55556
74733,55.55556
74767,55.55556
74800,55.90062
74833,55.90062
74867,55.90062
74900,56.25
74933,56.25
74967,56.25
75000,56.25
75033,56.25
75067,62.06896999999999
75100,62.42775
75133,62.42775
75167,62.42775
75200,62.42775
75233,62.42775
75267,62.42775
75300,62.42775
75333,62.42775
75367,62.42775
75400,62.42775
75433,52.02312
75467,52.02312
75500,62.42775
75533,67.02128
75567,67.02128
75600,67.02128
75633,67.02128
75667,57.44681
75700,57.44681
75733,57.44681
75767,57.44681
75800,57.44681
75833,57.44681
75867,67.02128
75900,67.02128
75933,67.02128
75967,67.02128
76000,67.02128
76033,67.02128
76067,67.02128
76100,48.97959
76133,48.97959
76167,48.97959
76200,53.89222
76233,53.89222
76267,53.89222
76300,53.89222
76333,53.57143000000001
76367,53.57143000000001
76400,53.57143000000001
76433,53.57143000000001
76467,53.57143000000001
76500,53.57143000000001
76533,53.57143000000001
76567,53.57143000000001
76600,53.57143000000001
76633,53.57143000000001
76667,57.75401
76700,57.75401
76733,57.75401
76767,57.75401
76800,57.75401
76833,53.57143000000001
76867,53.25444
76900,63.905330000000006
76933,66.31579
76967,66.31579
77000,66.31579
77033,66.31579
77067,66.31579
77100,66.31579
77133,66.31579
77167,66.31579
77200,66.31579
77233,66.31579
77267,66.31579
77300,66.31579
77333,66.31579
77367,66.31579
77400,66.31579
77433,70.58823000000002
77467,70.58823000000002
77500,70.58823000000002
77533,70.58823000000002
77567,70.58823000000002
77600,70.58823000000002
77633,70.58823000000002
77667,70.58823000000002
77700,70.58823000000002
77733,70.58823000000002
77767,70.58823000000002
77800,70.78650999999998
77833,70.78650999999998
77867,70.78650999999998
77900,70.78650999999998
77933,70.78650999999998
77967,70.0
78000,70.0
78033,70.0
78067,70.0
78100,70.0
78133,70.0
78167,70.0
78200,70.0
78233,70.0
78267,70.0
78300,70.0
78333,70.0
78367,70.0
78400,70.0
78433,70.0
78467,70.0
78500,70.0
78533,70.0
78567,71.28713
78600,71.28713
78633,71.28713
78667,72.83237
78700,72.83237
78733,72.83237
78767,72.83237
78800,72.83237
78833,72.83237
78867,72.83237
78900,72.83237
78933,72.83237
78967,72.83237
79000,72.83237
79033,72.83237
79067,72.83237
79100,72.83237
79133,72.83237
79167,72.83237
79200,75.0
79233,75.0
79267,75.0
79300,75.0
79333,75.0
79367,75.0
79400,75.0
79433,75.0
79467,75.0
79500,75.0
79533,75.0
79567,75.0
79600,75.0
79633,79.24529
79667,79.24529
79700,79.24529
79733,79.24529
79767,79.24529
79800,79.24529
79833,79.24529
79867,79.24529
79900,79.24529
79933,79.55801
79967,79.55801
80000,79.55801
80033,79.24529
80067,77.83784
80100,78.26087
80133,78.26087
80167,78.26087
80200,78.26087
80233,78.26087
80267,78.26087
80300,78.26087
80333,78.26087
80367,78.26087
80400,78.26087
80433,78.26087
80467,78.26087
80500,78.26087
80533,78.26087
80567,78.26087
80600,78.26087
80633,78.26087
80667,78.26087
80700,78.26087
80733,76.82927
80767,76.82927
80800,76.82927
80833,76.82927
80867,76.82927
80900,75.78947
80933,75.78947
80967,76.19048000000002
81000,76.19048000000002
81033,76.19048000000002
81067,76.19048000000002
81100,76.19048000000002
81133,76.19048000000002
81167,76.19048000000002
81200,76.19048000000002
81233,76.19048000000002
81267,76.19048000000002
81300,76.19048000000002
81333,76.19048000000002
81367,76.19048000000002
81400,76.19048000000002
81433,77.30060999999998
81467,77.30060999999998
81500,77.30060999999998
81533,77.30060999999998
81567,77.30060999999998
81600,77.30060999999998
81633,77.30060999999998
81667,77.30060999999998
81700,77.30060999999998
81733,77.30060999999998
81767,77.30060999999998
81800,77.30060999999998
81833,75.39267
81867,75.39267
81900,75.39267
81933,75.39267
81967,75.39267
82000,75.39267
82033,75.39267
82067,75.39267
82100,75.39267
82133,75.39267
82167,75.39267
82200,75.39267
82233,75.39267
82267,75.39267
82300,75.0
82333,75.0
82367,75.0
82400,75.0
82433,75.0
82467,75.0
82500,76.59574
82533,75.0
82567,75.78947
82600,75.78947
82633,75.78947
82667,75.78947
82700,75.78947
82733,75.78947
82767,75.78947
82800,75.78947
82833,75.78947
82867,75.78947
82900,75.78947
82933,75.78947
82967,75.78947
83000,75.78947
83033,75.78947
83067,75.0
83100,75.0
83133,75.0
83167,75.0
83200,75.0
83233,75.0
83267,76.19048000000002
83300,76.19048000000002
83333,76.19048000000002
83367,76.19048000000002
83400,76.19048000000002
83433,76.19048000000002
83467,76.19048000000002
83500,76.19048000000002
83533,76.19048000000002
83567,76.19048000000002
83600,76.19048000000002
83633,76.19048000000002
83667,76.19048000000002
83700,76.19048000000002
83733,76.19048000000002
83767,76.19048000000002
83800,76.36364
83833,76.36364
83867,76.36364
83900,76.36364
83933,76.36364
83967,78.68852
84000,78.68852
84033,78.68852
84067,78.68852
84100,78.68852
84133,78.68852
84167,78.68852
84200,78.68852
84233,78.68852
84267,78.68852
84300,78.68852
84333,78.68852
84367,78.68852
84400,78.68852
84433,78.68852
84467,78.68852
84500,80.19802
84533,80.19802
84567,80.19802
84600,80.89888
84633,80.89888
84667,80.89888
84700,80.89888
84733,80.89888
84767,80.89888
84800,80.89888
84833,80.89888
84867,80.89888
84900,80.89888
84933,80.89888
84967,80.89888
85000,80.89888
85033,80.89888
85067,80.89888
85100,80.89888
85133,80.89888
85167,80.89888
85200,81.40704000000002
85233,81.40704000000002
85267,81.40704000000002
85300,81.40704000000002
85333,81.40704000000002
85367,81.40704000000002
85400,80.0
85433,80.0
85467,80.0
85500,80.0
85533,80.0
85567,80.0
85600,80.0
85633,80.0
85667,80.0
85700,80.0
85733,80.0
85767,80.0
85800,80.0
85833,80.0
85867,80.0
85900,80.0
85933,80.0
85967,80.0
86000,80.0
86033,79.55801
86067,79.55801
86100,79.55801
86133,79.55801
86167,79.55801
86200,79.55801
86233,79.55801
86267,79.55801
86300,79.55801
86333,79.55801
86367,79.55801
86400,79.55801
86433,79.55801
86467,79.55801
86500,79.55801
86533,79.55801
86567,79.55801
86600,79.55801
86633,79.55801
86667,79.55801
86700,79.55801
86733,79.55801
86767,79.55801
86800,79.55801
86833,81.29032
86867,81.29032
86900,81.29032
86933,79.12088
86967,79.12088
87000,79.12088
87033,79.12088
87067,79.12088
87100,79.12088
87133,79.12088
87167,79.12088
87200,79.12088
87233,79.12088
87267,79.12088
87300,79.12088
87333,79.12088
87367,79.12088
87400,79.12088
87433,79.12088
87467,79.12088
87500,79.12088
87533,79.12088
87567,79.12088
87600,79.12088
87633,79.80296
87667,79.80296
87700,82.75862
87733,82.75862
87767,82.75862
87800,82.75862
87833,82.75862
87867,82.75862
87900,82.75862
87933,82.75862
87967,82.75862
88000,82.75862
88033,82.75862
88067,82.75862
88100,82.75862
88133,82.75862
88167,82.75862
88200,82.75862
88233,82.75862
88267,83.93782
88300,83.93782
88333,83.93782
88367,83.93782
88400,83.93782
88433,83.93782
88467,83.93782
88500,83.93782
88533,83.93782
88567,83.93782
88600,83.93782
88633,83.93782
88667,84.21053
88700,84.21053
88733,83.72093000000002
88767,83.72093000000002
88800,83.72093000000002
88833,83.72093000000002
88867,83.72093000000002
88900,83.72093000000002
88933,83.72093000000002
88967,83.72093000000002
89000,83.72093000000002
89033,83.72093000000002
89067,83.72093000000002
89100,83.07692
89133,83.07692
89167,83.07692
89200,83.07692
89233,83.07692
89267,83.07692
89300,83.07692
89333,83.07692
89367,83.07692
89400,82.75862
89433,82.75862
89467,82.75862
89500,82.75862
89533,82.75862
89567,82.75862
89600,82.75862
89633,82.75862
89667,82.75862
89700,82.75862
89733,82.75862
89767,82.75862
89800,82.28571
89833,82.28571
89867,82.28571
89900,82.28571
89933,82.28571
89967,82.28571
90000,82.28571
90033,82.28571
90067,82.28571
90100,77.00535
90133,77.00535
90167,77.00535
90200,77.00535
90233,77.00535
90267,77.00535
90300,77.00535
90333,77.00535
90367,77.00535
90400,77.00535
90433,77.00535
90467,77.00535
90500,77.00535
90533,77.00535
90567,77.00535
90600,77.00535
90633,77.00535
90667,77.00535
90700,75.0
90733,75.0
90767,75.0
90800,75.0
90833,75.0
90867,75.39267
90900,75.0
90933,75.0
90967,75.0
91000,75.0
91033,75.0
91067,75.0
91100,75.0
91133,75.0
91167,75.0
91200,75.0
91233,75.0
91267,75.0
91300,75.0
91333,73.68421
91367,73.68421
91400,73.68421
91433,73.68421
91467,73.68421
91500,73.68421
91533,73.68421
91567,75.39267
91600,75.39267
91633,75.39267
91667,75.39267
91700,75.39267
91733,75.39267
91767,75.39267
91800,75.39267
91833,75.39267
91867,75.39267
91900,75.39267
91933,75.39267
91967,75.39267
92000,75.39267
92033,75.90361999999998
92067,75.90361999999998
92100,75.90361999999998
92133,75.90361999999998
92167,75.90361999999998
92200,75.90361999999998
92233,75.90361999999998
92267,75.90361999999998
92300,76.59574
92333,76.59574
92367,76.59574
92400,76.59574
92433,76.59574
92467,76.59574
92500,76.59574
92533,76.59574
92567,76.59574
92600,76.59574
92633,76.59574
92667,76.59574
92700,76.59574
92733,76.59574
92767,76.59574
92800,76.59574
92833,76.59574
92867,78.26087
92900,78.26087
92933,78.26087
92967,78.26087
93000,78.26087
93033,78.26087
93067,78.26087
93100,78.26087
93133,78.26087
93167,78.26087
93200,78.26087
93233,78.26087
93267,78.26087
93300,78.26087
93333,78.26087
93367,78.26087
93400,78.26087
93433,78.26087
93467,78.26087
93500,78.26087
93533,78.26087
93567,78.26087
93600,78.26087
93633,78.26087
93667,78.26087
93700,78.26087
93733,78.26087
93767,77.30060999999998
93800,77.83784
93833,77.83784
93867,77.83784
93900,77.83784
93933,77.83784
93967,77.83784
94000,77.83784
94033,77.83784
94067,77.83784
94100,77.83784
94133,77.83784
94167,77.83784
94200,77.83784
94233,77.83784
94267,77.83784
94300,77.83784
94333,77.83784
94367,77.83784
94400,77.83784
94433,77.83784
94467,76.82927
94500,76.82927
94533,76.82927
94567,76.82927
94600,76.82927
94633,76.82927
94667,76.82927
94700,75.39267
94733,75.39267
94767,75.39267
94800,75.39267
94833,75.39267
94867,75.39267
94900,75.39267
94933,75.39267
94967,75.39267
95000,75.39267
95033,75.39267
95067,75.39267
95100,75.39267
95133,75.39267
95167,75.0
95200,75.0
95233,75.0
95267,75.0
95300,75.0
95333,75.0
95367,75.0
95400,75.0
95433,75.0
95467,75.0
95500,74.55621
95533,74.55621
95567,74.55621
95600,74.55621
95633,74.55621
95667,74.55621
95700,74.55621
95733,72.36180999999998
95767,72.36180999999998
95800,72.36180999999998
95833,72.36180999999998
95867,72.0
95900,72.0
95933,74.11765
95967,74.11765
96000,74.11765
96033,74.11765
96067,74.11765
96100,74.11765
96133,74.11765
96167,74.11765
96200,74.11765
96233,74.11765
96267,74.11765
96300,74.11765
96333,74.55621
96367,74.55621
96400,74.55621
96433,74.55621
96467,74.55621
96500,74.55621
96533,74.55621
96567,74.55621
96600,74.55621
96633,74.55621
96667,75.0
96700,75.0
96733,75.0
96767,75.0
96800,75.0
96833,75.0
96867,75.0
96900,75.0
96933,75.0
96967,75.0
97000,73.46939
97033,73.46939
97067,73.46939
97100,73.46939
97133,73.46939
97167,73.46939
97200,73.46939
97233,73.46939
97267,73.46939
97300,73.46939
97333,73.46939
97367,64.61539
97400,64.61539
97433,64.61539
97467,64.61539
97500,64.61539
97533,64.61539
97567,64.61539
97600,64.61539
97633,64.61539
97667,64.61539
97700,62.06896999999999
97733,62.06896999999999
97767,62.06896999999999
97800,62.06896999999999
97833,62.06896999999999
97867,62.06896999999999
97900,62.06896999999999
97933,62.06896999999999
97967,62.06896999999999
98000,62.06896999999999
98033,62.06896999999999
98067,62.06896999999999
98100,62.06896999999999
98133,62.06896999999999
98167,62.06896999999999
98200,62.06896999999999
98233,62.06896999999999
98267,62.06896999999999
98300,62.06896999999999
98333,62.06896999999999
98367,62.06896999999999
98400,59.21053000000001
98433,58.69565
98467,58.69565
98500,58.69565
98533,59.01639
98567,59.01639
98600,59.01639
98633,59.01639
98667,58.69565
98700,58.69565
98733,58.69565
98767,58.69565
98800,58.69565
98833,58.69565
98867,58.69565
98900,58.69565
98933,58.69565
98967,58.69565
99000,54.87805
99033,54.87805
99067,54.87805
99100,54.87805
99133,54.87805
99167,54.87805
99200,54.87805
99233,54.87805
99267,54.87805
99300,54.87805
99333,54.87805
99367,54.87805
99400,54.87805
99433,54.87805
99467,54.87805
99500,54.87805
99533,54.54546
99567,54.54546
99600,54.27136
99633,54.27136
99667,54.27136
99700,54.27136
99733,54.27136
99767,54.27136
99800,52.02312
99833,52.02312
99867,52.02312
99900,52.02312
99933,52.02312
99967,52.02312
100000,52.02312
100033,52.02312
100067,52.02312
100100,52.02312
100133,52.02312
100167,52.02312
100200,52.02312
100233,52.02312
100267,52.02312
100300,51.72414000000001
100333,51.72414000000001
100367,51.72414000000001
100400,51.72414000000001
100433,51.72414000000001
100467,51.72414000000001
100500,51.72414000000001
100533,51.72414000000001
100567,51.72414000000001
100600,51.72414000000001
100633,51.72414000000001
100667,48.97959
100700,48.97959
100733,50.0
100767,50.0
100800,50.0
100833,50.0
100867,50.0
100900,50.0
100933,50.0
100967,50.0
101000,50.0
101033,50.0
101067,50.27933
101100,50.27933
101133,50.27933
101167,50.27933
101200,50.27933
101233,50.27933
101267,50.27933
101300,50.27933
101333,50.27933
101367,50.27933
101400,50.27933
101433,50.27933
101467,50.27933
101500,50.27933
101533,50.27933
101567,48.64865
101600,48.64865
101633,48.64865
101667,50.84746
101700,50.84746
101733,50.84746
101767,50.84746
101800,50.84746
101833,50.84746
101867,50.84746
101900,50.84746
101933,50.84746
101967,50.84746
102000,50.84746
102033,50.84746
102067,50.84746
102100,50.84746
102133,50.84746
102167,50.84746
102200,50.84746
102233,50.84746
102267,50.84746
102300,50.84746
102333,50.84746
102367,50.84746
102400,50.84746
102433,50.84746
102467,50.84746
102500,50.84746
102533,50.84746
102567,52.94118
102600,57.69231
102633,57.69231
102667,57.69231
102700,57.69231
102733,57.69231
102767,57.69231
102800,57.69231
102833,57.69231
102867,57.69231
102900,57.69231
102933,57.69231
102967,57.69231
103000,57.69231
103033,57.69231
103067,57.69231
103100,57.69231
103133,57.69231
103167,57.69231
103200,57.69231
103233,57.69231
103267,57.69231
103300,57.69231
103333,57.69231
103367,57.69231
103400,57.69231
103433,57.69231
103467,57.69231
103500,57.69231
103533,57.69231
103567,57.69231
103600,57.69231
103633,57.69231
103667,57.69231
103700,57.69231
103733,56.5445
103767,56.5445
103800,56.5445
103833,56.5445
103867,56.5445
103900,56.5445
103933,56.5445
103967,56.5445
104000,56.5445
104033,56.5445
104067,56.5445
104100,56.5445
104133,56.5445
104167,56.5445
104200,56.96202
104233,56.96202
104267,56.96202
104300,56.96202
104333,56.96202
104367,56.96202
104400,56.96202
104433,56.96202
104467,56.96202
104500,56.96202
104533,56.96202
104567,56.96202
104600,56.96202
104633,56.96202
104667,56.96202
104700,56.96202
104733,56.96202
104767,56.96202
104800,56.96202
104833,56.96202
104867,56.96202
104900,56.96202
104933,56.96202
104967,56.96202
105000,56.96202
105033,56.96202
105067,56.96202
105100,54.27136
105133,54.27136
105167,54.27136
105200,54.27136
105233,54.27136
105267,54.27136
105300,54.87805
105333,54.87805
105367,54.87805
105400,54.87805
105433,54.87805
105467,54.87805
105500,54.87805
105533,54.87805
105567,54.87805
105600,54.87805
105633,54.87805
105667,54.87805
105700,54.87805
105733,54.54546
105767,54.54546
105800,54.54546
105833,54.54546
105867,54.54546
105900,54.54546
105933,54.54546
105967,54.54546
106000,54.54546
106033,54.54546
106067,54.54546
106100,54.54546
106133,54.54546
106167,54.54546
106200,54.54546
106233,54.54546
106267,54.54546
106300,54.54546
106333,54.54546
106367,54.54546
106400,54.54546
106433,54.54546
106467,54.13534
106500,54.13534
106533,54.13534
106567,54.13534
106600,54.13534
106633,54.13534
106667,54.13534
106700,54.13534
106733,49.72376
106767,54.13534
106800,49.72376
106833,49.72376
106867,49.72376
106900,49.72376
106933,49.72376
106967,49.72376
107000,49.72376
107033,49.72376
107067,49.72376
107100,49.72376
107133,49.72376
107167,47.36842
107200,47.36842
107233,47.36842
107267,47.36842
107300,47.36842
107333,49.72376
107367,49.72376
107400,49.72376
107433,49.72376
107467,49.72376
107500,49.72376
107533,47.36842
107567,47.36842
107600,47.36842
107633,47.36842
107667,47.36842
107700,47.36842
107733,47.36842
107767,47.36842
107800,47.36842
107833,47.36842
107867,47.36842
107900,47.36842
107933,47.36842
107967,47.36842
108000,47.36842
108033,47.36842
108067,47.36842
108100,47.36842
108133,47.36842
108167,47.36842
108200,47.36842
108233,47.36842
108267,47.36842
108300,47.36842
108333,47.36842
108367,47.36842
108400,47.36842
108433,47.36842
108467,47.36842
108500,44.17178
108533,44.17178
108567,44.17178
108600,44.17178
108633,44.17178
108667,44.17178
108700,44.17178
108733,44.17178
108767,44.17178
108800,44.17178
108833,44.17178
108867,44.17178
108900,44.17178
108933,44.17178
108967,44.17178
109000,44.17178
109033,46.39175
109067,46.39175
109100,46.39175
109133,46.39175
109167,46.39175
109200,46.15385
109233,46.15385
109267,46.15385
109300,46.15385
109333,46.15385
109367,46.15385
109400,45.0
109433,45.0
109467,45.0
109500,45.0
109533,45.0
109567,45.0
109600,45.0
109633,45.0
109667,45.0
109700,45.0
109733,45.0
109767,45.0
109800,45.0
109833,45.0
109867,45.0
109900,45.0
109933,45.0
109967,45.0
110000,45.0
110033,45.0
110067,45.0
110100,45.0
110133,45.0
110167,46.63213
110200,45.0
110233,46.15385
110267,45.91837
110300,45.91837
110333,45.91837
110367,45.91837
110400,45.91837
110433,45.91837
110467,46.15385
110500,46.15385
110533,46.15385
110567,47.05882
110600,47.05882
110633,47.05882
110667,47.05882
110700,47.05882
110733,47.05882
110767,47.05882
110800,47.05882
110833,47.05882
110867,47.05882
110900,47.05882
110933,47.05882
110967,47.05882
111000,47.05882
111033,47.05882
111067,47.05882
111100,47.05882
111133,47.05882
111167,47.05882
111200,47.05882
111233,47.05882
111267,50.84746
111300,50.84746
111333,50.84746
111367,50.84746
111400,50.84746
111433,50.84746
111467,50.84746
111500,50.84746
111533,50.84746
111567,50.84746
111600,50.84746
111633,50.84746
111667,50.84746
111700,50.84746
111733,50.84746
111767,50.84746
111800,50.84746
111833,50.84746
111867,50.84746
111900,50.84746
111933,52.94118
111967,55.81395
112000,56.96202
112033,56.96202
112067,56.96202
112100,56.96202
112133,56.96202
112167,56.96202
112200,56.96202
112233,56.96202
112267,56.96202
112300,56.96202
112333,56.96202
112367,56.96202
112400,56.96202
112433,56.96202
112467,56.96202
112500,56.96202
112533,56.96202
112567,56.96202
112600,56.96202
112633,56.96202
112667,56.96202
112700,60.33519
112733,60.33519
112767,60.33519
112800,60.33519
112833,60.33519
112867,60.33519
112900,60.33519
112933,60.33519
112967,60.33519
113000,60.33519
113033,60.33519
113067,60.33519
113100,60.33519
113133,60.33519
113167,60.33519
113200,60.33519
113233,60.33519
113267,60.33519
113300,60.33519
113333,60.33519
113367,60.33519
113400,60.33519
113433,60.33519
113467,60.33519
113500,60.33519
113533,60.33519
113567,63.82979
113600,63.82979
113633,63.82979
113667,63.82979
113700,63.82979
113733,63.82979
113767,63.82979
113800,63.82979
113833,61.71429000000001
113867,61.71429000000001
113900,61.71429000000001
113933,61.71429000000001
113967,61.71429000000001
114000,61.71429000000001
114033,61.71429000000001
114067,61.71429000000001
114100,61.71429000000001
114133,61.71429000000001
114167,61.71429000000001
114200,61.71429000000001
114233,61.71429000000001
114267,61.71429000000001
114300,61.71429000000001
114333,61.71429000000001
114367,61.71429000000001
114400,61.36364
114433,61.01695
114467,61.01695
114500,61.01695
114533,64.94846
114567,64.94846
114600,64.94846
114633,64.94846
114667,65.28497
114700,65.28497
114733,65.28497
114767,70.93596
114800,65.28497
114833,73.25581
114867,73.25581
114900,73.25581
114933,73.25581
114967,73.25581
115000,73.25581
115033,73.25581
115067,73.25581
115100,73.25581
115133,73.25581
115167,73.25581
115200,83.72093000000002
115233,88.04348
115267,88.04348
115300,88.52459
115333,88.52459
115367,88.52459
115400,88.52459
115433,88.52459
115467,88.52459
115500,88.52459
115533,88.52459
115567,88.52459
115600,92.78351
115633,92.78351
115667,92.78351
115700,92.78351
115733,92.78351
115767,92.78351
115800,92.78351
115833,92.78351
115867,92.78351
115900,102.0619
115933,102.0619
115967,114.4509
116000,124.8555
116033,124.8555
116067,124.8555
116100,124.8555
116133,124.8555
116167,135.2601
116200,135.2601
116233,135.2601
116267,135.2601
116300,137.7049
116333,147.541
116367,147.541
116400,147.541
116433,147.541
116467,147.541
116500,147.541
116533,147.541
116567,147.541
116600,147.541
116633,149.2228
116667,149.2228
116700,149.2228
116733,149.2228
116767,149.2228
116800,149.2228
116833,149.2228
116867,149.2228
116900,149.2228
116933,149.2228
116967,150.7389
117000,150.7389
117033,149.2228
117067,149.2228
117100,149.2228
117133,149.2228
117167,149.2228
117200,149.2228
117233,149.2228
117267,149.2228
117300,149.2228
117333,149.2228
117367,149.1713
117400,148.4536
117433,148.4536
117467,148.4536
117500,148.4536
117533,148.4536
117567,148.4536
117600,139.1753
117633,139.1753
117667,139.1753
117700,139.1753
117733,139.1753
117767,136.2162
117800,136.2162
117833,136.3636
117867,136.2162
117900,135.0
117933,140.0
117967,140.0
118000,140.0
118033,140.0
118067,140.0
118100,140.0
118133,140.0
118167,140.0
118200,130.0
118233,130.0
118267,130.0
118300,130.0
118333,130.0
118367,130.0
118400,120.0
118433,119.3878
118467,119.3878
118500,119.3878
118533,119.3878
118567,119.3878
118600,119.3878
118633,119.3878
118667,119.3878
118700,119.3878
118733,122.7273
118767,122.7273
118800,122.7273
118833,122.7273
118867,123.8095
118900,123.8095
118933,123.8095
118967,123.8095
119000,123.8095
119033,123.8095
119067,123.8095
119100,123.8095
119133,123.8095
119167,123.8095
119200,123.8095
119233,123.8095
119267,123.8095
119300,123.8095
119333,123.4286
119367,123.4286
119400,120.7317
119433,111.9171
119467,111.9171
119500,111.9171
119533,111.9171
119567,111.9171
119600,102.5907
119633,102.5907
119667,102.5907
119700,102.5907
119733,102.5907
119767,110.4295
119800,110.4295
119833,110.4295
119867,110.4295
119900,110.4295
119933,110.4295
119967,110.4295
120000,110.4295
120033,110.4295
120067,110.4295
120100,107.6087
120133,107.6087
120167,107.6087
120200,107.6087
120233,107.6087
120267,107.6087
120300,107.6087
120333,107.6087
120367,107.6087
120400,107.6087
120433,107.6087
120467,107.6087
120500,107.6087
120533,107.6087
120567,107.6087
120600,107.6087
120633,97.82609
120667,97.82609
120700,97.82609
120733,97.82609
120767,97.82609
120800,94.73684
120833,94.73684
120867,94.73684
120900,94.73684
120933,94.73684
120967,94.73684
121000,90.90909
121033,90.90909
121067,90.90909
121100,90.90909
121133,90.90909
121167,90.90909
121200,90.90909
121233,87.09676999999998
121267,87.09676999999998
121300,87.09676999999998
121333,87.09676999999998
121367,87.09676999999998
121400,87.09676999999998
121433,87.09676999999998
121467,87.09676999999998
121500,87.09676999999998
121533,87.09676999999998
121567,87.09676999999998
121600,87.09676999999998
121633,82.75862
121667,82.75862
121700,82.75862
121733,82.75862
121767,82.75862
121800,81.81818
121833,81.81818
121867,81.81818
121900,81.81818
121933,81.81818
121967,81.81818
122000,81.81818
122033,77.41936
122067,77.41936
122100,77.41936
122133,77.41936
122167,77.41936
122200,77.41936
122233,77.41936
122267,77.41936
122300,67.74194
122333,67.74194
122367,67.74194
122400,67.74194
122433,62.7907
122467,62.7907
122500,62.7907
122533,62.7907
122567,62.7907
122600,62.7907
122633,62.7907
122667,62.7907
122700,62.7907
122733,62.7907
122767,62.7907
122800,62.7907
122833,62.7907
122867,61.76471
122900,65.45454000000001
122933,65.45454000000001
122967,65.45454000000001
123000,65.45454000000001
123033,65.45454000000001
123067,65.45454000000001
123100,65.45454000000001
123133,65.45454000000001
123167,65.45454000000001
123200,65.45454000000001
123233,65.45454000000001
123267,65.45454000000001
123300,65.45454000000001
123333,65.45454000000001
123367,65.45454000000001
123400,65.45454000000001
123433,65.45454000000001
123467,65.45454000000001
123500,65.45454000000001
123533,65.45454000000001
123567,65.45454000000001
123600,65.45454000000001
123633,65.45454000000001
123667,65.45454000000001
123700,65.45454000000001
123733,65.45454000000001
123767,65.45454000000001
123800,65.45454000000001
123833,65.45454000000001
123867,65.45454000000001
123900,65.45454000000001
123933,65.45454000000001
123967,65.45454000000001
124000,65.45454000000001
124033,65.45454000000001
124067,65.45454000000001
124100,65.45454000000001
124133,65.45454000000001
124167,65.45454000000001
124200,68.18182
124233,68.18182
124267,68.18182
124300,68.18182
124333,68.18182
124367,68.18182
124400,68.18182
124433,68.18182
124467,62.42775
124500,62.42775
124533,62.42775
124567,62.42775
124600,62.42775
124633,62.42775
124667,62.42775
124700,62.42775
124733,62.42775
124767,62.42775
124800,62.42775
124833,62.42775
124867,62.42775
124900,62.42775
124933,62.42775
124967,62.42775
125000,62.42775
125033,62.42775
125067,62.42775
125100,62.42775
125133,62.42775
125167,62.42775
125200,62.37624
125233,62.37624
125267,62.37624
125300,62.06896999999999
125333,62.06896999999999
125367,62.06896999999999
125400,62.06896999999999
125433,62.06896999999999
125467,62.06896999999999
125500,62.06896999999999
125533,62.06896999999999
125567,62.06896999999999
125600,62.06896999999999
125633,62.06896999999999
125667,62.06896999999999
125700,62.06896999999999
125733,62.06896999999999
125767,62.06896999999999
125800,62.06896999999999
125833,62.06896999999999
125867,62.06896999999999
125900,62.06896999999999
125933,62.06896999999999
125967,62.06896999999999
126000,62.06896999999999
126033,62.06896999999999
126067,62.06896999999999
126100,62.06896999999999
126133,62.37624
126167,62.37624
126200,62.37624
126233,59.66851
126267,59.66851
126300,59.66851
126333,59.66851
126367,59.66851
126400,59.66851
126433,59.66851
126467,59.66851
126500,59.66851
126533,59.66851
126567,59.66851
126600,59.66851
126633,59.66851
126667,59.66851
126700,59.66851
126733,60.0
126767,60.0
126800,60.0
126833,60.33519
126867,60.33519
126900,60.33519
126933,59.21053000000001
126967,59.60265
127000,59.60265
127033,59.60265
127067,61.36364
127100,61.36364
127133,61.36364
127167,61.36364
127200,61.36364
127233,61.36364
127267,61.01695
127300,61.01695
127333,61.01695
127367,61.01695
127400,61.01695
127433,61.01695
127467,64.61539
127500,64.61539
127533,64.61539
127567,64.61539
127600,64.61539
127633,64.61539
127667,64.61539
127700,64.61539
127733,64.61539
127767,64.61539
127800,63.52941
127833,63.52941
127867,63.52941
127900,63.52941
127933,63.52941
127967,63.52941
128000,63.52941
128033,63.52941
128067,63.52941
128100,63.52941
128133,63.52941
128167,75.39267
128200,75.39267
128233,75.39267
128267,75.39267
128300,75.39267
128333,75.39267
128367,75.39267
128400,75.39267
128433,75.39267
128467,75.39267
128500,75.39267
128533,75.39267
128567,75.39267
128600,75.39267
128633,78.26087
128667,78.26087
128700,78.26087
128733,78.26087
128767,78.26087
128800,78.26087
128833,78.26087
128867,78.26087
128900,78.68852
128933,78.68852
128967,78.68852
129000,78.68852
129033,78.68852
129067,78.68852
129100,78.68852
129133,78.68852
129167,78.68852
129200,78.68852
129233,78.68852
129267,78.68852
129300,78.68852
129333,78.68852
129367,78.68852
129400,78.68852
129433,78.68852
129467,78.68852
129500,78.68852
129533,78.68852
129567,78.68852
129600,78.68852
129633,85.71429
129667,85.71429
129700,85.71429
129733,85.71429
129767,85.71429
129800,85.71429
129833,85.71429
129867,85.71429
129900,85.71429
129933,85.71429
129967,85.71429
130000,85.71429
130033,85.71429
130067,85.71429
130100,83.23699
130133,83.23699
130167,83.23699
130200,83.23699
130233,83.23699
130267,83.23699
130300,82.75862
130333,82.75862
130367,81.81818
130400,81.81818
130433,81.81818
130467,81.81818
130500,81.81818
130533,81.81818
130567,83.93782
130600,83.93782
130633,83.93782
130667,83.93782
130700,83.93782
130733,83.93782
130767,83.93782
130800,83.93782
130833,82.28571
130867,82.28571
130900,82.28571
130933,85.26316
130967,85.26316
131000,85.26316
131033,85.26316
131067,85.26316
131100,85.26316
131133,85.26316
131167,85.26316
131200,85.26316
131233,85.26316
131267,85.26316
131300,85.26316
131333,85.26316
131367,85.26316
131400,85.26316
131433,84.21053
131467,84.21053
131500,84.21053
131533,85.71429
131567,85.71429
131600,85.71429
131633,85.71429
131667,85.71429
131700,85.71429
131733,85.71429
131767,85.71429
131800,85.71429
131833,85.71429
131867,85.71429
131900,85.71429
131933,85.71429
131967,85.71429
132000,85.71429
132033,85.71429
132067,86.22755
132100,86.22755
132133,86.22755
132167,87.09676999999998
132200,87.09676999999998
132233,87.09676999999998
132267,87.09676999999998
132300,87.09676999999998
132333,87.09676999999998
132367,87.09676999999998
132400,87.09676999999998
132433,87.09676999999998
132467,87.09676999999998
132500,87.09676999999998
132533,87.09676999999998
132567,87.09676999999998
132600,87.09676999999998
132633,87.09676999999998
132667,87.09676999999998
132700,87.09676999999998
132733,87.09676999999998
132767,87.09676999999998
132800,101.8868
132833,100.5587
132867,100.5587
132900,100.5587
132933,100.5587
132967,100.0
133000,100.0
133033,100.0
133067,100.0
133100,100.0
133133,100.0
133167,100.0
133200,100.0
133233,100.0
133267,100.0
133300,100.0
133333,100.0
133367,100.0
133400,100.5587
133433,100.5587
133467,100.5587
133500,100.5587
133533,99.49749
133567,99.49749
133600,99.49749
133633,99.49749
133667,99.49749
133700,100.0
133733,100.0
133767,100.0
133800,100.0
133833,100.0
133867,100.0
133900,100.0
133933,100.0
133967,100.0
134000,100.0
134033,100.0
134067,100.0
134100,100.0
134133,99.44752
134167,99.44752
134200,89.50276
134233,89.50276
134267,89.50276
134300,89.50276
134333,88.88889
134367,88.88889
134400,88.88889
134433,85.71429
134467,85.71429
134500,85.71429
134533,85.71429
134567,85.71429
134600,85.71429
134633,85.71429
134667,85.71429
134700,85.71429
134733,85.71429
134767,85.71429
134800,85.71429
134833,85.71429
134867,85.71429
134900,85.71429
134933,85.71429
134967,87.27273000000002
135000,87.27273000000002
135033,87.27273000000002
135067,87.27273000000002
135100,87.27273000000002
135133,87.27273000000002
135167,87.27273000000002
135200,87.27273000000002
135233,87.27273000000002
135267,87.27273000000002
135300,87.27273000000002
135333,87.27273000000002
135367,87.27273000000002
135400,87.27273000000002
135433,87.27273000000002
135467,87.27273000000002
135500,87.27273000000002
135533,87.27273000000002
135567,87.27273000000002
135600,87.27273000000002
135633,87.27273000000002
135667,87.27273000000002
135700,87.80488000000004
135733,87.80488000000004
135767,76.82927
135800,80.0
135833,66.66666
135867,66.66666
135900,66.66666
135933,60.0
135967,60.0
136000,60.0
136033,60.0
136067,60.0
136100,60.0
136133,60.0
136167,60.0
136200,60.0
136233,60.0
136267,60.0
136300,60.0
136333,60.0
136367,60.0
136400,60.0
136433,60.0
136467,60.0
136500,60.0
136533,60.0
136567,60.0
136600,60.0
136633,60.0
136667,60.0
136700,60.0
136733,60.0
136767,67.16418
136800,67.16418
136833,67.16418
136867,67.16418
136900,67.16418
136933,53.73134
136967,54.54546
137000,54.54546
137033,54.54546
137067,54.54546
137100,54.54546
137133,54.54546
137167,54.54546
137200,54.54546
137233,54.54546
137267,54.54546
137300,54.54546
137333,54.54546
137367,54.54546
137400,54.54546
137433,54.54546
137467,54.54546
137500,54.54546
137533,54.54546
137567,54.54546
137600,54.54546
137633,54.54546
137667,54.54546
137700,54.54546
137733,54.54546
137767,54.54546
137800,56.84211
137833,56.84211
137867,56.84211
137900,56.84211
137933,56.84211
137967,56.84211
138000,56.84211
138033,56.84211
138067,56.84211
138100,56.84211
138133,56.84211
138167,56.84211
138200,66.31579
138233,65.96859
138267,65.96859
138300,64.28571
138333,64.28571
138367,64.28571
138400,64.28571
138433,64.28571
138467,64.28571
138500,67.02128
138533,67.02128
138567,67.02128
138600,67.02128
138633,67.02128
138667,67.02128
138700,67.02128
138733,67.02128
138767,67.02128
138800,67.02128
138833,67.02128
138867,67.02128
138900,67.02128
138933,67.02128
138967,67.02128
139000,67.02128
139033,67.02128
139067,63.905330000000006
139100,63.905330000000006
139133,63.905330000000006
139167,66.66666
139200,67.02128
139233,67.02128
139267,67.02128
139300,67.02128
139333,67.02128
139367,67.37968000000001
139400,67.37968000000001
139433,73.09644
139467,73.09644
139500,72.72726999999998
139533,72.72726999999998
139567,72.72726999999998
139600,81.40704000000002
139633,81.40704000000002
139667,80.89888
139700,80.89888
139733,80.89888
139767,80.89888
139800,80.89888
139833,80.89888
139867,81.81818
139900,81.81818
139933,85.26316
139967,85.26316
140000,85.26316
140033,85.26316
140067,85.26316
140100,85.26316
140133,85.26316
140167,85.26316
140200,85.26316
140233,85.26316
140267,85.26316
140300,85.26316
140333,85.26316
140367,85.26316
140400,92.04546
140433,92.57143
140467,92.57143
140500,92.57143
140533,92.57143
140567,92.57143
140600,102.8571
140633,102.8571
140667,102.8571
140700,102.8571
140733,102.8571
140767,102.8571
140800,102.8571
140833,102.8571
140867,104.7619
140900,104.7619
140933,104.7619
140967,104.7619
141000,114.2857
141033,114.2857
141067,114.2857
141100,114.2857
141133,114.2857
141167,114.2857
141200,114.8936
141233,114.8936
141267,114.8936
141300,114.8936
141333,115.8416
141367,115.8416
141400,115.8416
141433,117.3913
141467,117.3913
141500,117.3913
141533,117.3913
141567,117.3913
141600,117.3913
141633,117.3913
141667,117.3913
141700,117.3913
141733,117.3913
141767,117.3913
141800,117.3913
141833,117.5879
141867,117.5879
141900,117.5879
141933,117.5879
141967,117.5879
142000,117.5879
142033,117.3913
142067,117.3913
142100,117.3913
142133,117.3913
142167,117.3913
142200,117.3913
142233,117.3913
142267,117.3913
142300,117.3913
142333,117.5879
142367,117.5879
142400,117.5879
142433,117.5879
142467,117.5879
142500,117.5879
142533,116.7568
142567,116.7568
142600,116.7568
142633,116.7568
142667,116.7568
142700,116.7568
142733,116.7568
142767,116.7568
142800,116.7568
142833,117.0
142867,117.0
142900,117.0
142933,117.0
142967,117.0
143000,118.0328
143033,118.0328
143067,118.0328
143100,118.0328
143133,118.0328
143167,127.8689
143200,127.8689
143233,127.8689
143267,127.8689
143300,127.8689
143333,127.2727
143367,127.2727
143400,127.2727
143433,127.2727
143467,127.2727
143500,127.2727
143533,127.2727
143567,127.8689
143600,127.8689
143633,127.8689
143667,127.8689
143700,127.8689
143733,127.8689
143767,118.0328
143800,127.9188
143833,127.9188
143867,127.9188
143900,127.9188
143933,127.9188
143967,127.9188
144000,127.9188
144033,127.9188
144067,129.2818
144100,129.2818
144133,129.2818
144167,129.2818
144200,129.2818
144233,129.8969
144267,129.8969
144300,129.8969
144333,129.8969
144367,129.8969
144400,129.8969
144433,129.8969
144467,129.8969
144500,129.8969
144533,129.8969
144567,129.8969
144600,128.5714
144633,128.5714
144667,128.5714
144700,128.5714
144733,127.9188
144767,127.9188
144800,127.9188
144833,127.9188
144867,127.9188
144900,127.9188
144933,127.9188
144967,127.9188
145000,126.4865
145033,126.4865
145067,126.4865
145100,126.4865
145133,126.4865
145167,126.4865
145200,126.4865
145233,126.4865
145267,126.4865
145300,126.4865
145333,126.4865
145367,126.4865
145400,126.3158
145433,121.875
145467,121.875
145500,121.875
145533,121.875
145567,121.875
145600,121.875
145633,121.875
145667,121.875
145700,121.875
145733,121.875
145767,121.875
145800,121.875
145833,121.875
145867,121.2435
145900,121.2435
145933,121.2435
145967,121.2435
146000,121.2435
146033,121.2435
146067,121.2435
146100,121.2435
146133,121.2435
146167,121.2435
146200,121.2435
146233,121.2435
146267,121.875
146300,121.3483
146333,121.3483
146367,121.3483
146400,120.6186
146433,120.6186
146467,120.6186
146500,120.6186
146533,120.6186
146567,120.6186
146600,120.6186
146633,120.6186
146667,120.6186
146700,120.6186
146733,120.6186
146767,120.6704
146800,120.6704
146833,120.6704
146867,120.6704
146900,120.6704
146933,120.6704
146967,120.6704
147000,120.6704
147033,120.6704
147067,120.6704
147100,120.6704
147133,116.4179
147167,116.4179
147200,116.4179
147233,116.4179
147267,114.8936
147300,114.8936
147333,114.8936
147367,114.8936
147400,114.8936
147433,114.8936
147467,114.8936
147500,114.8936
147533,114.8936
147567,116.4179
147600,116.4179
147633,116.4179
147667,116.4179
147700,115.508
147733,115.508
147767,115.508
147800,115.508
147833,115.508
147867,115.508
147900,115.508
147933,115.508
147967,115.508
148000,115.508
148033,115.508
148067,115.508
148100,115.2709
148133,115.2709
148167,114.8936
148200,114.8936
148233,114.8936
148267,114.8936
148300,114.8936
148333,114.8936
148367,114.8936
148400,114.8936
148433,114.8936
148467,114.8936
148500,114.8936
148533,114.8936
148567,114.8936
148600,115.2709
148633,115.2709
148667,114.8936
148700,114.8936
148733,114.8936
148767,114.8936
148800,114.8936
148833,114.8936
148867,114.8936
148900,114.8936
148933,114.8936
148967,114.8936
149000,114.8936
149033,114.8936
149067,115.8416
149100,115.8416
149133,115.8416
149167,115.508
149200,115.508
149233,115.508
149267,115.508
149300,115.508
149333,115.508
149367,115.508
149400,115.508
149433,115.508
149467,115.508
149500,115.508
149533,115.508
149567,114.8936
149600,114.8936
149633,114.8936
149667,114.4509
149700,114.4509
149733,114.4509
149767,113.7931
149800,113.7931
149833,113.7931
149867,113.7931
149900,109.6447
149933,109.6447
149967,109.6447
150000,109.6447
150033,109.6447
150067,109.6447
150100,109.6447
150133,109.6447
150167,108.1967
150200,108.1967
150233,108.1967
150267,108.1967
150300,108.1967
150333,108.1967
150367,108.1967
150400,108.1967
150433,108.1967
150467,108.1967
150500,108.1967
150533,108.1967
150567,108.1967
150600,108.1967
150633,106.5089
150667,95.85799
150700,95.85799
150733,92.78351
150767,92.78351
150800,92.78351
150833,92.78351
150867,92.78351
150900,92.78351
150933,92.78351
150967,92.78351
151000,92.78351
151033,92.78351
151067,92.78351
151100,90.0
151133,90.0
151167,90.0
151200,90.0
151233,90.0
151267,90.0
151300,90.0
151333,90.0
151367,90.0
151400,90.0
151433,90.0
151467,90.0
151500,90.0
151533,90.0
151567,78.75
151600,78.75
151633,77.00535
151667,77.00535
151700,77.00535
151733,77.00535
151767,77.00535
151800,77.00535
151833,77.00535
151867,77.00535
151900,77.00535
151933,77.00535
151967,76.59574
152000,76.59574
152033,76.59574
152067,76.59574
152100,76.59574
152133,76.59574
152167,76.59574
152200,73.25581
152233,73.25581
152267,73.25581
152300,73.25581
152333,72.83237
152367,72.83237
152400,72.83237
152433,72.83237
152467,72.83237
152500,72.83237
152533,72.83237
152567,72.83237
152600,72.83237
152633,72.83237
152667,72.0
152700,72.0
152733,72.97298
152767,72.97298
152800,72.97298
152833,72.97298
152867,72.97298
152900,72.97298
152933,72.97298
152967,58.37838000000001
153000,58.37838000000001
153033,58.37838000000001
153067,58.37838000000001
153100,58.37838000000001
153133,58.37838000000001
153167,58.37838000000001
153200,58.37838000000001
153233,58.37838000000001
153267,58.37838000000001
153300,58.37838000000001
153333,58.37838000000001
153367,58.37838000000001
153400,58.37838000000001
153433,58.37838000000001
153467,58.37838000000001
153500,58.37838000000001
153533,58.37838000000001
153567,58.37838000000001
153600,58.37838000000001
153633,57.32484
153667,57.32484
153700,57.32484
153733,57.32484
153767,57.32484
153800,57.32484
153833,57.32484
153867,57.32484
153900,57.32484
153933,57.32484
153967,57.32484
154000,57.32484
154033,57.32484
154067,57.32484
154100,57.32484
154133,56.25
154167,56.25
154200,56.25
154233,56.25
154267,56.25
154300,56.25
154333,56.25
154367,56.25
154400,56.25
154433,56.25
154467,56.25
154500,56.25
154533,56.25
154567,56.5445
154600,60.40268
154633,60.40268
154667,60.40268
154700,60.40268
154733,60.40268
154767,60.40268
154800,60.40268
154833,60.40268
154867,60.40268
154900,60.40268
154933,60.40268
154967,60.40268
155000,60.40268
155033,60.40268
155067,60.40268
155100,60.40268
155133,60.40268
155167,60.40268
155200,60.40268
155233,60.40268
155267,60.40268
155300,60.40268
155333,60.40268
155367,60.40268
155400,60.40268
155433,60.40268
155467,60.40268
155500,60.40268
155533,60.40268
155567,60.0
155600,60.0
155633,60.0
155667,60.0
155700,60.0
155733,54.54546
155767,54.54546
155800,60.0
155833,54.82233000000001
155867,54.82233000000001
155900,54.82233000000001
155933,54.82233000000001
155967,51.72414000000001
156000,51.72414000000001
156033,51.72414000000001
156067,51.72414000000001
156100,51.72414000000001
156133,51.72414000000001
156167,51.72414000000001
156200,52.02312
156233,52.02312
156267,56.60378000000001
156300,56.60378000000001
156333,56.60378000000001
156367,56.60378000000001
156400,56.60378000000001
156433,56.60378000000001
156467,56.60378000000001
156500,56.60378000000001
156533,54.27136
156567,54.27136
156600,54.27136
156633,54.27136
156667,54.27136
156700,54.27136
156733,51.72414000000001
156767,51.72414000000001
156800,51.72414000000001
156833,51.72414000000001
156867,51.72414000000001
156900,51.72414000000001
156933,51.72414000000001
156967,51.72414000000001
157000,51.72414000000001
157033,51.72414000000001
157067,51.72414000000001
157100,51.72414000000001
157133,51.72414000000001
157167,51.72414000000001
157200,51.72414000000001
157233,51.72414000000001
157267,51.72414000000001
157300,51.72414000000001
157333,51.72414000000001
157367,51.72414000000001
157400,54.0
157433,54.0
157467,54.0
157500,54.0
157533,54.0
157567,52.94118
157600,52.94118
157633,52.94118
157667,52.94118
157700,52.94118
157733,52.94118
157767,52.94118
157800,52.94118
157833,52.94118
157867,52.94118
157900,52.94118
157933,52.94118
157967,52.94118
158000,52.94118
158033,52.94118
158067,52.94118
158100,52.94118
158133,52.94118
158167,52.94118
158200,52.94118
158233,52.94118
158267,52.94118
158300,52.94118
158333,54.54546
158367,54.54546
158400,54.27136
158433,54.27136
158467,54.27136
158500,54.27136
158533,54.27136
158567,55.55556
158600,55.55556
158633,55.55556
158667,55.55556
158700,55.55556
158733,55.55556
158767,55.55556
158800,55.55556
158833,55.55556
158867,55.55556
158900,55.55556
158933,55.55556
158967,55.55556
159000,55.55556
159033,55.55556
159067,55.55556
159100,55.55556
159133,55.55556
159167,55.55556
159200,55.55556
159233,55.55556
159267,55.55556
159300,55.55556
159333,55.55556
159367,55.55556
159400,55.55556
159433,55.55556
159467,55.55556
159500,55.55556
159533,55.55556
159567,55.55556
159600,55.55556
159633,55.55556
159667,55.55556
159700,55.55556
159733,55.55556
159767,55.55556
159800,56.69291
159833,56.69291
159867,56.69291
159900,52.02312
159933,52.02312
159967,52.02312
160000,52.02312
160033,52.02312
160067,52.02312
160100,52.02312
160133,52.02312
160167,52.02312
160200,52.02312
160233,52.02312
160267,52.02312
160300,52.02312
160333,52.02312
160367,51.72414000000001
160400,51.72414000000001
160433,51.72414000000001
160467,51.72414000000001
160500,51.72414000000001
160533,51.72414000000001
160567,51.72414000000001
160600,51.72414000000001
160633,51.13636
160667,51.13636
160700,51.13636
160733,51.13636
160767,51.13636
160800,51.13636
160833,51.13636
160867,51.13636
160900,51.13636
160933,51.13636
160967,50.34965
161000,50.34965
161033,50.34965
161067,50.34965
161100,50.34965
161133,50.34965
161167,50.34965
161200,50.34965
161233,50.34965
161267,49.72376
161300,49.72376
161333,50.34965
161367,48.91304
161400,48.91304
161433,48.91304
161467,48.91304
161500,48.91304
161533,48.91304
161567,48.91304
161600,48.91304
161633,48.91304
161667,48.91304
161700,48.91304
161733,48.91304
161767,48.91304
161800,48.91304
161833,48.91304
161867,48.91304
161900,48.91304
161933,48.91304
161967,48.91304
162000,48.91304
162033,48.91304
162067,49.65517
162100,49.65517
162133,49.65517
162167,49.65517
162200,49.65517
162233,49.65517
162267,49.65517
162300,49.65517
162333,49.65517
162367,49.65517
162400,49.65517
162433,49.65517
162467,49.65517
162500,49.65517
162533,49.65517
162567,49.65517
162600,49.65517
162633,49.65517
162667,49.65517
162700,48.64865
162733,48.91304
162767,48.91304
162800,48.91304
162833,48.91304
162867,48.91304
162900,48.91304
162933,48.91304
162967,48.91304
163000,48.91304
163033,48.91304
163067,48.91304
163100,48.91304
163133,48.91304
163167,48.91304
163200,48.91304
163233,48.91304
163267,48.91304
163300,48.91304
163333,48.91304
163367,45.56962
163400,45.56962
163433,45.56962
163467,45.56962
163500,45.56962
163533,45.56962
163567,45.56962
163600,45.56962
163633,45.56962
163667,45.56962
163700,45.56962
163733,45.56962
163767,45.56962
163800,45.56962
163833,45.56962
163867,45.56962
163900,45.56962
163933,45.56962
163967,45.56962
164000,45.56962
164033,45.56962
164067,45.56962
164100,45.56962
164133,45.56962
164167,44.33498
164200,44.33498
164233,41.14286
164267,41.14286
164300,41.14286
164333,41.37931
164367,41.6185
164400,41.6185
164433,41.6185
164467,41.6185
164500,41.6185
164533,41.6185
164567,41.6185
164600,41.6185
164633,41.6185
164667,41.6185
164700,41.6185
164733,41.6185
164767,41.6185
164800,41.6185
164833,41.6185
164867,46.15385
164900,41.6185
164933,41.6185
164967,45.45454
165000,45.45454
165033,45.45454
165067,45.45454
165100,45.45454
165133,45.45454
165167,45.45454
165200,48.32215
165233,48.32215
165267,48.32215
165300,48.32215
165333,47.68212
165367,47.68212
165400,47.68212
165433,48.64865
165467,48.64865
165500,48.64865
165533,48.64865
165567,48.64865
165600,48.64865
165633,52.63158000000001
165667,52.63158000000001
165700,52.63158000000001
165733,52.32558
165767,52.32558
165800,52.32558
165833,52.32558
165867,52.32558
165900,62.7907
165933,62.7907
165967,62.7907
166000,62.7907
166033,62.7907
166067,62.7907
166100,62.7907
166133,62.7907
166167,62.7907
166200,62.7907
166233,62.7907
166267,62.7907
166300,62.7907
166333,67.02128
166367,67.02128
166400,67.02128
166433,67.02128
166467,67.02128
166500,67.02128
166533,67.02128
166567,67.02128
166600,67.02128
166633,67.02128
166667,67.02128
166700,67.02128
166733,73.46939
166767,73.46939
166800,73.46939
166833,73.46939
166867,73.46939
166900,73.46939
166933,74.11765
166967,74.55621
167000,74.55621
167033,74.55621
167067,74.55621
167100,74.55621
167133,74.55621
167167,74.55621
167200,74.55621
167233,74.55621
167267,74.55621
167300,74.11765
167333,63.52941
167367,63.52941
167400,68.10811
167433,67.74194
167467,67.74194
167500,67.74194
167533,67.74194
167567,67.74194
167600,77.41936
167633,77.83784
167667,77.83784
167700,77.83784
167733,77.83784
167767,77.83784
167800,77.83784
167833,82.23351
167867,82.23351
167900,82.23351
167933,82.23351
167967,82.23351
168000,82.23351
168033,82.23351
168067,91.37056
168100,107.2848
168133,107.2848
168167,107.2848
168200,107.2848
168233,110.4295
168267,110.4295
168300,110.4295
168333,110.4295
168367,110.4295
168400,110.4295
168433,110.4295
168467,110.4295
168500,110.4295
168533,110.4295
168567,110.4295
168600,110.4295
168633,113.1429
168667,113.1429
168700,113.1429
168733,113.1429
168767,113.1429
168800,113.1429
168833,113.1429
168867,113.1429
168900,123.4286
168933,123.4286
168967,126.4865
169000,126.4865
169033,126.4865
169067,126.4865
169100,126.4865
169133,126.4865
169167,126.4865
169200,126.4865
169233,126.4865
169267,126.4865
169300,126.4865
169333,126.4865
169367,127.9188
169400,127.9188
169433,127.9188
169467,127.9188
169500,127.9188
169533,127.9188
169567,127.9188
169600,127.9188
169633,127.1739
169667,127.1739
169700,127.1739
169733,127.1739
169767,128.5714
169800,128.5714
169833,128.5714
169867,128.5714
169900,128.5714
169933,128.5714
169967,129.2308
170000,129.2308
170033,129.2308
170067,137.6471
170100,139.2265
170133,139.2265
170167,139.2265
170200,139.2265
170233,139.2265
170267,139.2265
170300,139.2265
170333,139.2265
170367,139.2265
170400,138.4615
170433,138.4615
170467,139.8964
170500,139.8964
170533,139.8964
170567,139.8964
170600,139.8964
170633,139.8964
170667,139.8964
170700,139.8964
170733,139.8964
170767,139.8964
170800,139.8964
170833,141.1765
170867,153.4091
170900,153.4091
170933,153.4091
170967,153.4091
171000,153.4091
171033,153.4091
171067,153.4091
171100,153.4091
171133,153.4091
171167,153.4091
171200,154.0107
171233,154.0107
171267,154.0107
171300,154.0107
171333,154.0107
171367,154.0107
171400,154.0107
171433,154.0107
171467,154.0107
171500,154.0107
171533,154.0107
171567,154.0107
171600,154.0107
171633,153.0
171667,153.0
171700,153.0
171733,153.0
171767,153.0
171800,157.377
171833,157.377
171867,157.377
171900,157.377
171933,157.377
171967,157.377
172000,157.377
172033,157.377
172067,157.377
172100,157.377
172133,157.377
172167,157.377
172200,157.377
172233,157.377
172267,157.377
172300,157.377
172333,157.377
172367,156.9767
172400,156.9767
172433,156.9767
172467,156.9767
172500,149.2228
172533,149.2228
172567,149.2228
172600,149.2228
172633,149.2228
172667,149.2228
172700,149.2228
172733,149.2228
172767,149.2228
172800,149.2228
172833,149.2228
172867,149.2228
172900,149.2228
172933,149.2228
172967,149.2228
173000,149.2228
173033,149.2228
173067,150.7389
173100,150.7389
173133,150.7853
173167,150.7853
173200,150.7853
173233,150.0
173266,150.0
173300,150.0
173333,150.0
173366,150.0
173400,150.0
173433,150.0
173466,150.0
173500,150.0
173533,150.0
173566,150.0
173600,150.0
173633,150.0
173666,150.0
173700,150.0
173733,150.0
173766,150.0
173800,150.0
173833,150.0
173866,150.0
173900,150.0
173933,150.0
173966,150.0
174000,150.0
174033,150.0
174066,150.0
174100,150.0
174133,150.0
174166,150.0
174200,150.0
174233,150.0
174266,150.0
174300,150.0
174333,150.0
174366,150.0
174400,150.0
174433,150.0
174466,150.0
174500,150.0
174533,150.0
174566,150.0
174600,150.0
174633,150.0
174666,150.0
174700,150.0
174733,150.0
174766,150.0
174800,150.0
174833,150.0
174866,150.0
174900,150.0
174933,150.0
174966,150.0
175000,150.0
175033,150.0
175066,150.0
175100,150.0
175133,150.0
175166,150.0
175200,150.0
175233,150.0
175266,150.0
175300,150.0
175333,150.0
175366,150.0
175400,150.0
175433,150.0
175466,150.0
175500,150.0
175533,150.0
175566,150.0
175600,150.0
175633,150.0
175666,150.0
175700,150.0
175733,150.0
175766,150.0
175800,150.0
175833,150.0
175866,150.0
175900,150.0
175933,150.0
175966,150.0
176000,150.0
176033,150.0
176066,150.0
176100,150.0
176133,150.0
176166,150.0
176200,150.0
176233,150.0
176266,150.0
176300,150.0
176333,150.0
176366,150.0
176400,150.0
176433,150.0
176466,150.0
176500,150.0
176533,150.0
176566,150.0
176600,150.0
176633,150.0
176666,150.0
176700,150.0
176733,150.0
176766,150.0
176800,150.0
176833,150.0
176866,150.0
176900,150.0
176933,150.0
176966,150.0
177000,150.0
177033,150.0
177066,150.0
177100,150.0
177133,150.0
177166,150.0
177200,150.0
177233,150.0
177266,150.0
177300,150.0
177333,150.0
177366,150.0
177400,150.0
177433,150.0
177466,150.0
177500,150.0
177533,150.0
177566,150.0
177600,150.0
177633,150.0
177666,150.0
177700,150.0
177733,150.0
177766,150.0
177800,150.0
177833,150.0
177866,150.0
177900,150.0
177933,150.0
177966,150.0
178000,150.0
178033,150.0
178066,150.0
178100,150.0
178133,150.0
178166,150.0
178200,150.0
178233,150.0
178266,150.0
178300,150.0
178333,150.0
178366,150.0
178400,150.0
178433,150.0
178466,150.0
178500,150.0
178533,150.0
178566,150.0
178600,150.0
178633,150.0
178666,150.0
178700,150.0
178733,150.0
178766,150.0
178800,150.0
178833,150.0
178866,150.0
178900,150.0
178933,150.0
178966,150.0
179000,150.0
179033,150.0
179066,150.0
179100,150.0
179133,150.0
179166,150.0
179200,150.0
179233,150.0
179266,150.0
179300,150.0
179333,150.0
179366,150.0
179400,150.0
179433,150.0
179466,150.0
179500,150.0
179533,150.0
179566,150.0
179600,150.0
179633,150.0
179666,150.0
179700,150.0
179733,150.0
179766,150.0
179800,150.0
179833,150.0
179866,150.0
179900,150.0
179933,150.0
179966,150.0
180000,150.0
180033,150.0
180066,150.0
