B,G,R,Time[ms]
113.8885303653822,90.76959408903852,62.091454670158384,0.0
114.10867938645715,90.69424180072329,62.37966080558674,33.333333333333336
114.12215340340342,90.89476976976977,62.1988551051051,66.66666666666667
113.85139980047389,90.73049943883278,62.08978675645343,100.0
114.30294356856855,90.84715965965964,62.51099537037037,133.33333333333334
113.74074074074076,90.69589412644969,62.0090566155381,166.66666666666666
114.03794113979299,90.63946564409528,62.39869372739744,200.0
113.6772844726333,90.50019575600972,61.930483125831955,233.33333333333331
113.95904784276878,90.4627358859917,62.22817320491739,266.6666666666667
113.97851382037427,90.46234437397229,62.238728368960935,300.0
113.95724387177877,90.65364550597107,62.06169076052797,333.3333333333333
114.32143306096796,90.60892520427404,62.51480201131364,366.6666666666666
113.77388078314009,90.65095398428731,62.12612233445567,400.0
114.14236500810577,90.58444007981043,62.52512782142412,433.33333333333337
113.86231138545956,90.6541027559546,62.15609801720913,466.66666666666674
113.65076261850456,90.5576502350696,62.09008673524803,500.0
113.87934645999162,90.5339570823442,62.41280702571026,533.3333333333334
114.0946727977978,90.896021021021,62.252236611611615,566.6666666666666
114.59361268047708,91.04838355304457,62.62335216572505,600.0
114.1161943193193,90.96268143143145,62.320163913913916,633.3333333333333
114.38687124624624,90.95351601601601,62.68219782282282,666.6666666666666
114.66955430006277,91.10703075957314,62.780288763339605,700.0
114.28408662900189,91.15541431261772,62.42867231638418,733.3333333333333
113.98918194288565,90.84156378600824,62.464459408903856,766.6666666666667
114.00841466466468,91.08256694194193,62.3633008008008,800.0
114.10713617658062,90.90851415388451,62.675505050505066,833.3333333333335
113.56255333674689,90.90769445608156,62.26957749538395,866.6666666666667
113.56165340036308,90.90567735729029,62.26926717249298,900.0
113.88814411395056,90.8183680119164,62.627317724091924,933.3333333333336
113.52207171562011,90.85751524461205,62.288569256311206,966.6666666666664
113.64492854815435,90.70658970658972,62.46073639622029,1000.0
113.34281369765242,90.6305761144471,62.0844698909215,1033.3333333333335
113.22473943030342,90.35933875606966,62.23350756193364,1066.6666666666667
113.24247672656419,90.3450654130455,62.23540964339839,1100.0
113.19854458564137,90.53682756908563,61.99146612049838,1133.3333333333333
113.16412024866236,90.22014659944948,62.142888071011036,1166.6666666666667
112.89453499520614,90.1737389045248,61.746249961339814,1200.0
113.14565614078495,90.11582593634986,61.98736584913247,1233.3333333333335
112.85451396406151,90.08373797668018,61.72524974484274,1266.6666666666665
112.85077165743978,90.07861936720998,61.72076516252746,1300.0
113.36075036075034,90.15132895778058,62.18115098760261,1333.3333333333333
113.11184374610302,90.21500498815314,61.73728020950244,1366.6666666666667
113.03995774297786,89.97442828734775,61.9310371613224,1400.0
112.52434039390562,89.86281431933607,61.52674036913167,1433.333333333333
113.31369248035915,90.22014902107496,62.23098266616786,1466.6666666666665
113.07876584638329,90.06020072085508,62.115430027342775,1500.0
112.34096758781193,89.79369018078695,61.611315752970725,1533.3333333333335
113.1082295826482,90.00682796961867,61.93895544593219,1566.666666666667
112.57997502731386,89.85267675979397,61.60532230373029,1600.0
112.64219798657714,89.78887024608501,61.81176982351479,1633.333333333333
112.63902205177374,90.11720223919836,61.83300343302509,1666.666666666667
112.64530046701513,90.12777966783165,61.863962515077475,1700.0
113.09140560753464,90.25247870409164,62.195131033840724,1733.3333333333335
112.97661717016555,90.3307886856274,62.05965957578862,1766.6666666666665
113.38886561467207,90.3206256109482,62.45172151623765,1800.0
112.95595094677664,90.395329441201,62.02705958669262,1833.333333333333
113.21568900009268,90.30077533747259,62.416875173755905,1866.666666666667
113.06726319511708,90.19922205310331,62.431806650984726,1900.0
112.66761988223179,90.0941684731639,62.027074396937415,1933.333333333333
112.89437756561044,89.94271481942715,62.2266654367111,1966.6666666666665
112.61840628507295,89.80625124917363,61.834939962793854,2000.0
112.88101717325462,89.74390787632797,62.09323063204342,2033.333333333333
112.79723843944029,89.85342723874834,61.85991412596918,2066.666666666667
112.80842059741144,89.85120316312978,61.83419825162946,2100.0
112.8932485684379,89.70081891509143,62.02116556862261,2133.333333333333
112.6068745766886,89.66312111323195,61.72638692198756,2166.6666666666665
113.30779375940666,89.88378407733246,62.20524756008628,2200.0
113.27405343131149,90.03555860007471,62.118196537551356,2233.333333333333
112.98359091188965,89.7039745089588,62.23351394618558,2266.6666666666665
112.77021263539015,89.54654659261759,62.14493265011813,2300.0
112.70860784434456,89.78469613940027,61.8895080352195,2333.333333333333
113.50041842301016,90.09047235308704,62.353815397966784,2366.6666666666665
113.02017113026287,89.98782936397616,62.038149074846324,2400.0
113.0391139708146,89.84211255464564,62.30633889538822,2433.333333333333
112.84255895572932,89.90159165076041,62.06340434702296,2466.666666666667
112.8446986023028,89.89426451573178,62.04430145926976,2500.0
113.92879793798329,90.38553464031868,62.58087948137155,2533.333333333333
113.14487424164845,90.03323558162269,62.09365544849416,2566.666666666667
112.97554029924265,89.69359953204851,62.24873776245306,2600.0
113.30684082700209,90.0334568439407,62.0935047951177,2633.333333333333
113.7881121612122,90.03153948293371,62.40379598531593,2666.6666666666665
113.7685542450988,90.03877216277435,62.40931031789424,2700.0
112.84868563308932,89.56256757174191,61.90448830815804,2733.333333333333
113.17669045191981,89.4183270008958,62.23970592777933,2766.666666666666
113.02620567815521,89.52987850235556,61.791129432184476,2800.0
113.34349429704935,89.40951214976447,62.16278204810315,2833.333333333333
113.3994557611569,89.63671279738766,61.98927071995025,2866.666666666666
113.4047893018193,89.62932669880269,61.95762711864407,2900.0
113.62893795677185,89.54523402270254,62.23434924584046,2933.333333333333
113.39895817135748,89.54671124241953,61.99312704089567,2966.666666666667
113.66339605038095,89.47620898771576,62.2381122686985,3000.0
113.39816513761468,89.5051313948064,61.94574716218318,3033.333333333333
113.64335251127352,89.48659617477844,62.220976519981356,3066.666666666667
113.591994644414,89.39382239382239,62.160075974592104,3100.0
113.38263100606441,89.5102472399316,61.91388586533977,3133.333333333333
113.76188393345308,89.57483402327576,62.23850660001562,3166.666666666666
113.0993033251098,89.34970286583193,61.82617263262426,3200.0
113.31405801130572,89.2903808729497,62.18073703394805,3233.333333333333
112.66790838002585,89.20699156455879,61.66172033741764,3266.666666666666
112.88660303339205,89.36947456213512,61.74055540110586,3300.0
112.99251893356319,89.13321224062555,62.077658395419,3333.333333333333
112.5588633704821,89.07462594667818,61.67885290314635,3366.666666666666
112.89002788759157,89.01164536790169,62.0641567834268,3400.0
112.52744597007572,88.80447632534941,61.51620897727972,3433.333333333333
112.82556492826795,88.58575518748846,61.776214518810406,3466.666666666667
112.87075918970504,88.56252693799642,61.805384520657604,3500.0
112.71778951595465,88.72996015197849,61.465758502455756,3533.333333333333
112.96046087789207,88.61010718808883,61.75678806412752,3566.666666666667
112.69312389954592,88.60533469249066,61.39508232168783,3600.0
113.01239180234613,88.66153160217087,61.77399566440664,3633.333333333334
112.74100210629892,88.71657211383238,61.501452885014544,3666.666666666666
112.75190258751906,88.69902987254585,61.49939270943838,3700.0
112.89296987527193,88.48786430081827,61.93541417670314,3733.333333333334
112.51068002819405,88.55422757500536,61.466289724495105,3766.666666666666
112.81759676381357,88.48866108914835,61.83717936931139,3800.0
112.54307253838371,88.6268578958659,61.47700039839418,3833.333333333334
113.0526827912149,88.59348840082787,61.740122941957814,3866.666666666666
112.82276337663937,88.45282002339756,61.6744042854504,3900.0
112.98343354822713,88.80991197619639,61.57499070171089,3933.333333333333
113.31342982891148,88.84546243491198,61.95158690800893,3966.666666666667
113.04770022315891,88.95482581205059,61.592517976692285,4000.0
113.16750069502363,88.76885058536436,61.8534581286875,4033.333333333333
112.82272263923643,88.91061996107868,61.52536064003954,4066.666666666666
112.84707935625369,88.89539122107931,61.52239520588145,4100.0
113.39559571038929,89.0064158194892,61.99854326803868,4133.333333333334
113.07227870071907,88.97083436647655,61.615872179518966,4166.666666666667
113.39542524175552,88.77860773617655,61.93469501611704,4200.0
112.93719005702951,88.6744359037937,61.44748016364989,4233.333333333333
113.27730597570049,88.4720431440615,61.744188569303255,4266.666666666667
113.30278328787504,88.46520890156212,61.773865608728,4300.0
113.06504546020676,88.50091854527338,61.33414808818034,4333.333333333333
113.14010971981155,88.37820790974463,61.55284527646914,4366.666666666666
112.96387614678899,88.43498946193901,61.250635383089524,4400.0
113.01112037809288,88.18418126216291,61.46986686436228,4433.333333333334
112.80291499469584,88.35945451470566,61.35165967129439,4466.666666666667
112.95375776109722,88.40762363698143,61.345364964631024,4500.0
113.3029587806985,88.44387881031717,61.751280389979016,4533.333333333333
113.0087776132297,88.54558496853018,61.47096754288536,4566.666666666666
113.14190738904043,88.4312856434416,61.495242375402924,4600.0
113.0971051326556,88.67015869080092,61.43030932308457,4633.333333333334
113.53880485990578,88.56259298289116,62.03379928093232,4666.666666666667
113.78798009640805,88.71659150987404,62.15639869382678,4700.0
113.03295864989413,88.59675862498443,61.389945821397426,4733.333333333333
113.33324511147093,88.56934238385851,61.68890895503797,4766.666666666667
113.21333374659064,88.83472291098438,61.561167245226876,4800.0
113.28911438544468,88.7314119791184,61.81376455688383,4833.333333333333
113.01607054302008,88.79523617654353,61.4433424249938,4866.666666666666
112.76704352392427,88.64586229265129,61.35166651221698,4900.0
113.0249281808915,88.60320328668953,61.654403360825384,4933.333333333334
112.76200846384334,88.60723442374821,61.33999011521948,4966.666666666667
112.99190683594357,88.45244493868348,61.628950050968406,5000.0
112.39294070562157,88.20394372267717,61.04045317406562,5033.333333333333
112.71160859305569,88.25147865526648,61.51823419447764,5066.666666666666
112.96505388742833,88.40980582076473,61.64222129975555,5100.0
112.65647340989807,88.44023184662454,61.28086035391971,5133.333333333334
112.9789575765039,88.24667508158363,61.71367218767317,5166.666666666667
112.32849559694394,88.13517535515939,61.083519990181344,5200.0
112.84734622252323,88.19353795948523,61.55470722246167,5233.333333333333
112.63468998214395,88.29139215565544,61.253940644048996,5266.666666666667
112.6212825564928,88.29308540114525,61.24639800504895,5300.0
112.91724647497074,88.29328551197584,61.536327812326824,5333.333333333333
112.65406994643186,88.40333107567267,61.296595037251386,5366.666666666666
112.910181023336,88.37380703158672,61.67448125115448,5400.0
112.678883689428,88.4585770580629,61.36968166984792,5433.333333333334
113.04787266793915,88.4542361923527,61.83076780986392,5466.666666666667
113.07453358783329,88.45885413459763,61.83826426944153,5500.0
112.53579208984077,88.45339204074745,61.354791200024536,5533.333333333332
112.80933386517748,88.5199134730447,61.744101132214425,5566.666666666666
112.55292872265349,88.64919763124789,61.481206468043325,5600.0
113.3233637091312,88.78722061449417,62.06589803583522,5633.333333333334
112.94430761652607,88.90291546087063,61.65417769841758,5666.666666666668
112.66691724709275,88.79029486668098,61.501012549476854,5700.0
112.74292048929665,88.59568807339451,61.77290519877676,5733.333333333332
112.41652905198778,88.74131498470949,61.479036697247714,5766.666666666668
112.41432228961563,88.62804413423146,61.727940504129975,5800.0
111.96667121770659,88.65070768670641,61.38192326946706,5833.333333333332
112.64635944700458,88.58560675883257,61.54860215053763,5866.666666666666
112.43619578363977,88.43135783945986,61.46669320391322,5900.0
112.19107033639143,88.5726146788991,61.271131498470965,5933.333333333334
112.5317737003058,88.43088685015293,61.668409785932724,5966.666666666668
112.27814307458141,88.69990867579908,61.458538812785385,6000.0
112.62910197869101,88.6608675799087,61.76386605783866,6033.333333333332
112.42721461187216,88.74299847792999,61.590715372907155,6066.666666666666
112.41138508371384,88.74831050228309,61.62439878234399,6100.0
112.91614678899084,88.73128440366973,62.11700305810398,6133.333333333334
112.90239353913971,89.05090701724643,61.827227470986244,6166.666666666668
113.09350230414744,88.86932411674347,62.13059907834101,6200.0
113.1240848912658,89.23203304409478,61.920842131220816,6233.333333333332
113.81970432684874,89.46973680141033,62.548881947236566,6266.666666666668
113.57193717923029,89.32803661976173,62.46785752816609,6300.0
113.48881431767336,89.38025105642555,62.098962217250794,6333.333333333332
113.82570531941336,89.43773303504847,62.465852597564,6366.666666666666
113.25142178999121,89.4212197339827,62.05371206633479,6400.0
113.52722592975049,89.39574310682305,62.41884623090794,6433.333333333334
112.9088532110092,89.3651376146789,62.01860856269114,6466.666666666668
112.88974006116207,89.35793577981651,62.007415902140686,6500.0
113.10324159021408,89.36235474006115,62.282247706422034,6533.333333333332
112.74073394495413,89.41834862385322,61.96793577981652,6566.666666666666
113.09136085626913,89.40036697247706,62.47249235474007,6600.0
112.89986499340307,89.60960081003958,61.99944770028535,6633.333333333334
113.24503697339756,89.65890890123043,62.45458869012918,6666.666666666668
113.27326562547943,89.65901629284159,62.49966248350771,6700.0
112.67218654434252,89.55810397553519,62.015626911315,6733.333333333332
112.91386850152908,89.50889908256882,62.33613149847096,6766.666666666668
112.87393759013224,89.64948912276395,62.03442668221289,6800.0
112.64345149196869,89.22190557468988,62.0626809716846,6833.333333333332
112.748258721733,89.49970850848395,61.969792273940655,6866.666666666666
112.72150286889018,89.49383265318646,61.96733760854225,6900.0
112.80139143730888,89.23788990825689,62.15204892966362,6933.333333333334
112.69029793501274,89.3342947439477,61.907765947654255,6966.666666666668
112.84035469915008,89.22615139148844,62.134070755730114,7000.0
112.527216102605,89.24147770856985,61.839296124697,7033.333333333332
112.7439602446483,88.99507645259939,62.199755351681965,7066.666666666666
112.52718766192206,88.85403395409796,62.14412203968424,7100.0
112.07609192599593,88.88074918467493,61.728854887378475,7133.333333333334
112.59948012232417,88.96723241590216,62.16056574923548,7166.666666666668
112.0555335426255,88.92521868999359,61.70377030692798,7200.0
112.69810683931142,89.24666318922401,62.174035776748184,7233.333333333332
112.00094486269012,89.04273217714649,61.758785699046,7266.666666666668
112.2146636085627,89.19957186544346,61.80906727828746,7300.0
112.28364168368437,89.03960803438082,62.09668078880795,7333.333333333332
112.32024464831804,89.25067278287462,61.9122629969419,7366.666666666666
112.83684145929855,89.38213003589952,62.28879138412445,7400.0
112.52252155503052,89.48916878892946,61.98846307262741,7433.333333333334
112.79957657021878,89.42800159553249,62.28908287564054,7466.666666666668
112.7022495074907,89.38481391548694,62.3186115056276,7500.0
112.60734558620476,89.51270289343685,62.020557822711794,7533.333333333332
112.94357337915376,89.42441164738732,62.49536681906048,7566.666666666666
112.46215212788807,89.57474456138199,62.034840906998866,7600.0
112.74772176367708,89.4234911478629,62.365867877634926,7633.333333333334
112.07406392694064,89.27133942161339,61.88549467275495,7666.666666666668
112.25521907118096,89.42920847268671,61.923260182342965,7700.0
112.551992180938,89.32618622195751,62.175119500313066,7733.333333333332
112.4267435795158,89.39299193028751,61.907781289313,7766.666666666668
112.6427387929183,89.29175232426132,62.183670338437004,7800.0
112.22145355141186,89.27336173851955,61.947664207938175,7833.333333333332
112.26377473363777,89.04280060882799,62.150441400304395,7866.666666666666
112.29426179604263,89.02893455098935,62.154444444444465,7900.0
112.20760220521984,89.23774835448452,61.907683144729006,7933.333333333334
112.41244024984348,89.18955116751421,62.116048930224025,7966.666666666668
112.18765748843175,89.22467586017319,61.8475282906492,8000.0
112.77849284422787,89.31281603383286,62.445741779289634,8033.333333333332
112.62112756176684,89.50680319173469,62.12267269344896,8066.666666666666
112.62338760512276,89.4974709038636,62.12421013790878,8100.0
112.48740856126206,89.10664162123362,62.23351811975993,8133.333333333332
112.29609401368477,89.27332699211439,61.93651621613329,8166.666666666666
112.58361204013376,89.25846092479519,62.2316743886349,8200.0
112.30236875210949,89.36398085360989,61.94392623730478,8233.333333333332
112.59919916541376,89.32449142401276,62.24443864870671,8266.666666666668
112.41715596330276,89.17707951070334,62.193700305810395,8300.0
112.28998803350618,89.48587033230032,61.785845785646345,8333.333333333334
112.42657482126968,89.41848976711361,62.0430333527661,8366.666666666668
112.26923076923076,89.50208646558866,61.855236108128004,8400.0
112.4982050259274,89.47439477156271,62.087186646620225,8433.333333333334
112.32151514221718,89.5290417599951,61.878892945905314,8466.666666666666
112.3329139946611,89.52451597066673,61.89596821208309,8500.0
112.69462428277744,89.50892884538678,62.3858427173146,8533.333333333334
112.32321806633732,89.57630941057344,61.97012979043294,8566.666666666666
112.58562179742874,89.40727501457458,62.32383173268694,8600.0
112.30600472523086,89.40692215642355,61.91730845939063,8633.333333333332
112.45988156239453,89.25646650915897,62.24772176367709,8666.666666666666
112.49355650332916,89.24756834708971,62.27318891718573,8700.0
112.06541683286795,89.277837439784,61.89748703629837,8733.333333333332
112.34997391918014,89.12589365162161,62.06862323954466,8766.666666666668
112.0473136755546,89.09412107637077,61.75809272498542,8800.0
112.25660458408764,88.94434046209076,61.95156638335736,8833.333333333334
112.04485901015616,88.97712558681845,61.69404129974533,8866.666666666668
112.05921880273695,88.96399312693687,61.69884323893099,8900.0
112.28400478659752,88.90213555889662,61.99878800895953,8933.333333333334
112.0984474241355,88.9348439753306,61.737672977202294,8966.666666666666
112.22362385321102,88.7122782874618,62.10022935779818,9000.0
112.00463318093952,88.89684268663126,61.712052407106256,9033.333333333334
112.31861556871529,88.84939093614801,61.985394740879386,9066.666666666666
112.31975085146206,88.83658065110001,61.991362646129296,9100.0
112.0541867386702,88.91838237550243,61.70708170967446,9133.333333333332
112.28360590347029,88.868107759811,61.9586849130128,9166.666666666666
112.0418213617256,88.96044920376791,61.653278512472774,9200.0
112.55453789791271,89.0410688996983,62.057708884920864,9233.333333333332
111.99588843545764,89.01123009419778,61.67483354300267,9266.666666666668
111.96649381731152,89.01259550182566,61.66595072259214,9300.0
112.26097695682856,88.97643521217512,61.950998741983966,9333.333333333334
111.89732415902141,88.8794036697248,61.64470948012233,9366.666666666668
112.38929459053112,89.0361142646743,62.03020772605935,9400.0
112.09992022337455,89.12862446687734,61.76464361326747,9433.333333333334
112.2150764525994,88.91863914373091,62.14581039755352,9466.666666666666
112.46060262035532,89.06329968396183,62.27539811604432,9500.0
111.95917584609249,89.07419226166733,61.65729802706268,9533.333333333334
112.25094351201253,88.90064741799883,61.974471479856405,9566.666666666666
111.93949249792887,88.88987757356325,61.666687122211655,9600.0
112.18784326961428,88.75974962412936,61.86965726734375,9633.333333333332
112.1002247398559,88.89033926482357,61.65537836340126,9666.666666666666
112.04998152823102,88.8764084723847,61.60578166369065,9700.0
112.17237887760423,88.570433555276,61.72392685097114,9733.333333333332
111.93732932404652,88.61380442453438,61.47132643981468,9766.666666666668
112.22329784296278,88.54415329385414,61.789313000521624,9800.0
111.92852321192969,88.58603602221474,61.471234389862225,9833.333333333334
112.19508453253964,88.53978092111319,61.79376208155625,9866.666666666668
112.24368690742844,88.52908778497131,61.7865208186309,9900.0
111.95661378908287,88.56366788377159,61.45549384799485,9933.333333333334
112.13562026326288,88.49180755423276,61.723620017796314,9966.666666666666
111.98702095670583,88.58539167254763,61.44647295265564,10000.0
112.27088766837471,88.58307508207787,61.850925102022025,10033.333333333334
111.98022460188395,88.7021723788776,61.58454788131693,10066.666666666666
112.01957595655243,88.68661593691509,61.63382528919027,10100.0
112.33096560400112,88.64556165812648,61.84397533061274,10133.333333333332
111.86756880733944,88.59402140672783,61.581559633027524,10166.666666666666
112.3104384646068,88.74000490933079,61.969147924273564,10200.0
112.06262465097728,88.8394802246019,61.631692798625394,10233.333333333332
112.31390567948206,88.79580252216871,61.92264735663221,10266.666666666668
112.3249976987512,88.79775091282869,61.93973796446872,10300.0
111.82964831804286,88.76588685015291,61.48613149847097,10333.333333333334
112.30239943542696,88.8872234666012,61.880825994906566,10366.666666666668
111.82782874617737,88.80282874617737,61.549480122324155,10400.0
112.18694189602448,88.67467889908258,61.9605504587156,10433.333333333334
112.00652020496456,88.75273848608515,61.58017550857598,10466.666666666666
111.71785932721713,88.62553516819574,61.44626911314985,10500.0
111.98029051987768,88.4247859327217,61.75724770642202,10533.333333333334
111.71880733944955,88.47631498470949,61.43782874617739,10566.666666666666
112.21002730815256,88.46994569052806,61.79575649719248,10600.0
111.68065749235477,88.3402140672783,61.39926605504588,10633.333333333332
111.88166666666667,88.22922018348625,61.625107033639146,10666.666666666666
111.91392966360857,88.21385321100918,61.6279510703364,10700.0
111.60290519877675,88.24050458715597,61.31093272171254,10733.333333333332
111.89162079510704,88.1275382262997,61.5661009174312,10766.666666666668
111.72256880733946,88.16448012232416,61.32218654434251,10800.0
111.89544342507645,88.13917431192661,61.49267584097861,10833.333333333334
111.83557603686636,88.24377880184332,61.3010599078341,10866.666666666668
111.82341013824885,88.2369431643625,61.283287250384035,10900.0
112.31746494430979,88.27777607314903,61.83664201773496,10933.333333333334
111.6832262996942,88.21319571865446,61.305611620795105,10966.666666666666
111.95837920489298,88.12873088685015,61.624892966360854,11000.0
111.88062655334295,88.4343377005922,61.378892945905314,11033.333333333336
112.20590040195145,88.34558620478045,61.68285723052378,11066.666666666664
112.20441226105366,88.35597250774755,61.705470835506745,11100.0
111.91585100181032,88.45759565524223,61.42847718695345,11133.333333333332
112.15007210579607,88.41683286796969,61.73636893620938,11166.666666666664
111.95222607468321,88.53735693903225,61.50191770734251,11200.0
111.99036697247708,88.41139143730888,61.706253822629975,11233.333333333332
111.9633487772698,88.65453652848946,61.54430671044153,11266.666666666668
111.96221349452304,88.65671504403058,61.54631646773649,11300.0
112.44433840280772,88.76220676066744,61.89785111754202,11333.333333333336
112.11393931896208,88.69693501994867,61.48772152290232,11366.666666666668
112.53766701557785,88.72307739671201,62.013253494242974,11400.0
111.86850664293823,88.50349789819275,61.4386640483569,11433.333333333336
111.91565749235477,88.16954128440369,61.62079510703364,11466.666666666664
111.94506116207953,88.1433027522936,61.61688073394496,11500.0
111.49697108066972,88.11170471841706,61.24885844748857,11533.333333333336
112.09292442698904,88.18511245435856,61.57031082200607,11566.666666666664
111.56298165137615,88.05577981651376,61.18652905198777,11600.0
112.05920346107821,88.10969285999201,61.62472768555735,11633.333333333332
111.52198776758414,87.97252293577982,61.152339449541294,11666.666666666664
111.52608562691131,87.95383792048929,61.133058103975536,11700.0
112.03135835046486,88.03956613789083,61.4589917461876,11733.333333333332
112.05379902715349,88.26256080290622,61.351640908811035,11766.666666666668
112.04973765763556,88.03227884998924,61.44664171090179,11800.0
111.58605504587156,87.95550458715597,61.15539755351682,11833.333333333336
112.38933871067051,88.24030232128563,61.851117542023275,11866.666666666668
112.41082753525028,88.24983067545101,61.8476848716212,11900.0
111.72072044429443,88.19539136571446,61.310484489583004,11933.333333333336
112.50324344361044,88.40110585982147,61.82920952645724,11966.666666666664
112.0030940213041,88.38101102148882,61.39694292223385,12000.0
112.26071362600824,88.35636660304169,61.721322578658935,12033.333333333336
112.05946370297394,88.47349301151405,61.36252385936826,12066.666666666664
112.04599470475956,88.4757711963549,61.36089218644172,12100.0
112.56911623884102,88.55493775677263,61.7900256386495,12133.333333333332
111.81841612715166,88.35535884139793,61.275167991163215,12166.666666666664
112.08355067349882,88.38079531158907,61.63514467184193,12200.0
111.7844650363597,88.47235433095024,61.33412598570158,12233.333333333332
111.90536812416195,88.28118305257155,61.43465930983464,12266.666666666668
112.026034794882,88.43857199840447,61.63669417937468,12300.0
111.9868080783203,88.64204790345421,61.404485561233905,12333.333333333336
112.03999570433555,88.32752907244331,61.70826301739744,12366.666666666668
111.91421402622991,88.41558401576256,61.35456560556615,12400.0
112.36760572081673,88.38745250671856,61.67136193741699,12433.333333333336
111.7840650206268,88.24264207868973,61.196955236746504,12466.666666666664
111.78092481990022,88.21961394002831,61.17167969952589,12500.0
112.31835171284712,88.25532079201805,61.559694807401236,12533.333333333336
112.00630154758595,88.2745806690761,61.23013004664382,12566.666666666664
112.1749605666038,88.10193919524944,61.421581665790384,12600.0
111.70120374361186,88.148774705991,61.045409765408536,12633.333333333332
111.98537651622436,88.10057878209469,61.300489501877955,12666.666666666664
112.02016501446954,88.0736253925251,61.34322086078443,12700.0
111.77629148451449,88.14255587710116,61.029662582353296,12733.333333333332
112.26585426126712,88.23065517560933,61.38660303339203,12766.666666666668
111.73429899636723,88.16261313958498,61.02262791700018,12800.0
112.5432512529287,88.27441853248304,61.66474266474267,12833.333333333336
111.82393325534142,88.19687827104242,61.13772243088479,12866.666666666668
111.7988578289514,88.20074194938734,61.134412905609246,12900.0
112.05487654701064,88.13210393448679,61.455683147589426,12933.333333333336
111.821116310572,88.26785604334705,61.14943661104611,12966.666666666664
111.883633518456,88.10946273511094,61.3789236292228,13000.0
111.50047007690766,88.06733659047825,60.860533575821094,13033.333333333336
111.84250253137371,88.27674818201343,61.414777085698496,13066.666666666664
111.86448712834832,88.26969101899297,61.4340001840999,13100.0
111.63595777975516,88.31797121904819,61.07963855052008,13133.333333333332
112.00131005039844,88.24061772729375,61.40613103586456,13166.666666666664
111.53646712282531,88.15384615384615,61.057009603878356,13200.0
111.88879983971148,88.08757301604427,61.30231339488003,13233.333333333332
111.61691043878984,88.06776813649185,60.96587704021085,13266.666666666668
111.61675631521356,88.06396128415764,60.98278439652914,13300.0
112.04673026832916,87.91355208606261,61.38632615631213,13333.333333333336
111.61899110706965,87.892221383105,60.91530909483224,13366.666666666668
111.98859485535505,87.77095695328516,61.2975201516576,13400.0
111.58748296791777,87.74352780874521,60.72609315000618,13433.333333333336
112.19357931525069,88.04051588160705,61.38420499180405,13466.666666666664
112.23251786100887,88.02257755234591,61.42716419756906,13500.0
111.6817656396899,87.98349336498005,60.9107778616895,13533.333333333336
111.97120971595024,88.01764714948445,61.34707088143274,13566.666666666664
111.50254992319508,88.01250384024576,61.043317972350216,13600.0
111.89561535393207,88.06811696480624,61.44854407658556,13633.333333333332
111.62440551072382,88.16409438188455,61.0984474241355,13666.666666666664
111.62712098432085,88.15702187720537,61.09712804148384,13700.0
111.98102236813844,88.18489767113621,61.410420054616296,13733.333333333332
111.83320548617716,88.25608296769045,61.2129115399957,13766.666666666668
112.34113712374581,88.33159687437387,61.66769415717523,13800.0
111.8783194365242,88.44604904212197,61.16927392383213,13833.333333333336
112.04481298517996,88.34609247951889,61.550197907397745,13866.666666666668
112.10156178085974,88.33496977693228,61.59178914424228,13900.0
111.82713018931608,88.45837807983798,61.178546224417794,13933.333333333336
112.34222030663136,88.57262483837202,61.626901052890815,13966.666666666664
111.82197539197935,88.4343377005922,61.18518916265226,14000.0
112.04542665152957,88.31797121904819,61.46911724095611,14033.333333333336
111.77766868153783,88.30279831855421,61.16710134699764,14066.666666666664
111.87543732564771,88.35622582186397,61.16051970469923,14100.0
111.9910558129545,88.15340124574269,61.42459574729219,14133.333333333332
111.75290724433123,88.16604277254456,61.10254364701912,14166.666666666664
112.01037096130834,88.11780859746555,61.3523672179436,14200.0
111.57108562691131,87.9630886850153,60.95996941896025,14233.333333333332
112.26918474425457,88.10573471203706,61.52782976895462,14266.666666666668
112.27621122395752,88.10366358810715,61.55776134515664,14300.0
111.79900892884537,88.12314749470713,61.042941302813645,14333.333333333336
112.15568715289496,88.09619220030069,61.453131232548856,14366.666666666668
111.79795940385002,88.03631151457239,60.974970331211566,14400.0
111.81724770642202,87.90305810397554,61.2955504587156,14433.333333333336
111.47344036697248,88.00625382262997,60.96920489296637,14466.666666666664
111.4861620795107,87.98711009174312,60.975733944954136,14500.0
111.85029185867896,88.07224270353302,61.357926267281115,14533.333333333336
111.48811926605505,88.13169724770643,61.104969418960245,14566.666666666664
111.85128440366974,88.18775229357797,61.48125382262997,14600.0
111.57666666666668,88.239250764526,61.12533639143732,14633.333333333332
112.1946396244362,88.41489981896844,61.64048356908349,14666.666666666664
112.45254294686285,88.55218274736777,61.712917923773155,14700.0
111.86507011138045,88.47161793133074,61.27180816789911,14733.333333333332
112.16409340113928,88.47876483254684,61.75466165758007,14766.666666666668
111.83508193216352,88.60277026923842,61.40462118782548,14800.0
112.35890717415954,88.72143054150959,61.8213661855291,14833.333333333336
112.02375042137844,88.79067451196717,61.47056480034322,14866.666666666668
112.12645465180715,88.84369804814973,61.44444615479343,14900.0
112.33010021145536,88.73595660568171,61.83000827434035,14933.333333333336
111.79896458514685,88.5877582810281,61.36757227287305,14966.666666666664
112.07493776820758,88.44104396695225,61.5944930590553,15000.0
111.74059650891098,88.42345107741177,61.22785235411799,15033.333333333336
112.2101960663987,88.32205210027305,61.56093706851586,15066.666666666664
112.25011506244057,88.30571323371483,61.61044460127029,15100.0
111.84174035216324,88.30520303599518,61.23703058902583,15133.333333333332
112.21472185572705,88.33803810868031,61.48359976680678,15166.666666666664
112.00486330582062,88.39968089349821,61.190788868092426,15200.0
112.33403393574913,88.3755638059587,61.68785861127305,15233.333333333332
111.7646636085627,88.20250764525993,61.20683486238533,15266.666666666668
111.73619266055049,88.20215596330276,61.18504587155964,15300.0
112.05308410073151,88.34385546952551,61.53410913089292,15333.333333333336
111.59543378995431,88.26668188736681,61.17546423135464,15366.666666666668
111.82669710806697,88.27768645357685,61.490639269406394,15400.0
111.6672171253823,88.30521406727829,61.0362385321101,15433.333333333336
111.99,88.31321100917431,61.45071865443426,15466.666666666664
112.2213801356203,88.47312141388727,61.569804547267644,15500.0
111.6825840978593,88.37487767584099,61.10090214067279,15533.333333333336
111.95330275229358,88.42877675840981,61.36405198776759,15566.666666666664
111.74394495412844,88.44029051987768,61.065672782874614,15600.0
112.01470319634704,88.60733637747336,61.613013698630134,15633.333333333332
111.78340978593272,88.62029051987768,61.264495412844035,15666.666666666664
111.75085626911316,88.63555045871556,61.27204892966361,15700.0
111.99187214611872,88.58844748858446,61.71614916286149,15733.333333333332
111.42207930750708,88.46851473681002,61.06280288945108,15766.666666666668
111.45268546084208,88.18640257609819,61.26528039370557,15800.0
111.37331220092048,88.33821512389895,61.0108202017739,15833.333333333336
111.3907284768212,88.10348441582113,61.17068169390607,15866.666666666668
111.41209976304758,88.09526702715841,61.19612370131843,15900.0
111.03223160580838,88.0732729813476,60.85927152317882,15933.333333333336
111.24880004860563,88.008338902728,61.062488608056384,15966.666666666664
110.90553800352392,87.95412844036697,60.701166535026424,16000.0
111.23616258581932,87.92548149948357,61.0001367033234,16033.333333333336
110.9659304939547,87.97202138647549,60.76107296919618,16066.666666666664
110.96433562184824,87.95950543775442,60.744957166292,16100.000000000002
111.53669724770643,88.06472309427292,61.13773659666556,16133.333333333332
111.24857508610444,88.07286110518456,60.85741717211741,16166.666666666668
111.72255308725141,88.10263790437405,61.259120902674645,16200.0
111.14284190313634,88.09485202231095,60.871407235819426,16233.333333333336
111.48683288122162,88.03541711115852,61.26692370995764,16266.666666666664
111.533314029687,88.02148800633972,61.274665488128264,16300.0
110.92955222066955,88.02732547542378,60.84860866395286,16333.333333333332
111.39358102959557,88.1797982260965,61.17551586454936,16366.666666666668
111.2056447925874,88.25428998140755,60.937181870828134,16400.0
111.52965649669298,88.2300283458807,61.229555914535645,16433.333333333332
111.27093175653023,88.33935810295954,60.981514218659534,16466.666666666664
111.2853180529733,88.33169252339295,60.983784937059966,16500.0
111.64468668187456,88.3925777362708,61.293629529831435,16533.333333333336
111.27864305525922,88.4773994940413,61.007269346825574,16566.666666666668
111.53436557042276,88.44466457374502,61.353165290011894,16600.0
111.27980127404066,88.54798988082537,61.015712152153384,16633.333333333332
111.75128775640827,88.57648815873694,61.66582340211527,16666.666666666668
111.75253741351459,88.57429363894053,61.672132646529924,16700.0
111.45214727666188,88.5868359291658,61.34447864915114,16733.333333333336
112.12078487926115,88.74922524623362,61.72564511675002,16766.666666666664
111.31761102136608,88.38618976500351,61.177588466579294,16800.0
111.78761467889908,88.41544342507645,61.4667125382263,16833.333333333332
111.45230414746544,88.2573579109063,60.947803379416285,16866.666666666668
111.51107033639143,88.39559633027523,61.1079510703364,16900.0
111.74042813455658,88.31029051987768,61.3501376146789,16933.333333333332
111.35531202435313,88.32499238964992,61.064003044140044,16966.666666666664
111.44386850152904,88.1293272171254,61.10415902140673,17000.0
111.57511339167088,88.49962584566515,61.12034025137063,17033.333333333336
111.76206838624945,88.48546906736307,61.39510697759656,17066.666666666668
111.6866926452088,88.3442207971526,61.201880887361526,17100.0
111.55929904597508,88.41570210995177,60.95328514402847,17133.333333333332
111.8188456935964,88.38145500291492,61.39130434782609,17166.666666666668
111.5219385719984,88.41488447730968,61.06773342333773,17200.0
111.78230186247735,88.38062655334295,61.419425608296784,17233.333333333336
111.4147792998478,88.49812785388126,61.17855403348554,17266.666666666664
111.63119072708113,88.64583619675936,61.2333654037049,17300.0
111.85243047601593,88.65076892533712,61.583421145064975,17333.333333333332
111.6883828896932,88.74097829904858,61.324689604618136,17366.666666666668
112.04458286029886,88.7558681844681,61.584348439753285,17400.0
111.85138535178423,88.82791261391182,61.2606854653125,17433.333333333332
112.05865116136356,88.83592095977417,61.591252186186374,17466.666666666664
112.08112669141786,88.84820962842501,61.60416986284557,17500.0
111.87697523856279,88.93805038200729,61.317510969286005,17533.333333333336
112.05773066183916,88.9400294559848,61.653339879107726,17566.666666666668
111.81979687643828,89.03464146543524,61.36517750299162,17600.0
111.96709480122324,88.90111620795106,61.765351681957185,17633.333333333332
111.84646067932863,89.16456997330552,61.519714031481065,17666.666666666668
111.8261790064742,89.17908318247368,61.47599030407167,17700.0
112.17426590162928,89.06471111656592,61.741585100181034,17733.333333333336
111.89500168758244,89.17130496149244,61.394526096161506,17766.666666666664
111.9827430857806,89.07386875582229,61.68948244528947,17800.0
111.79959191187751,89.12465097726366,61.335123193519685,17833.333333333332
112.09451995949804,88.95225675800067,61.611395784112176,17866.666666666668
112.10538185388607,88.94102666380289,61.647801540302545,17900.0
111.73850142677428,88.90956092172684,61.30029762817956,17933.333333333332
111.98499585775214,88.81092939768648,61.58735540486637,17966.666666666664
111.67448068485164,88.81683593630144,61.17925194071982,18000.0
111.71119266055048,88.58044342507645,61.3781498470948,18033.333333333336
111.31782343987824,88.55059360730594,61.05782343987824,18066.666666666668
111.32053272450531,88.5438508371385,61.05529680365297,18100.0
112.06434291675615,88.5786873676782,61.62104568745973,18133.33333333333
111.94175235515054,88.754694907949,61.32487223693122,18166.666666666668
112.0174281243288,88.48382989168789,61.474471479856405,18200.0
111.45521406727829,88.46981651376144,61.1258868501529,18233.333333333336
111.94305176275658,88.59953668190605,61.444877420146675,18266.666666666664
111.97398054677672,88.60363290478966,61.471679297965686,18300.0
111.3985626911315,88.53975535168196,61.04414373088685,18333.33333333333
111.90460556595379,88.64016139424993,61.44331257095517,18366.666666666668
111.68006504863304,88.72231597680342,61.22246939339081,18400.0
112.0617110799439,88.72690843518333,61.43621595795509,18433.33333333333
111.80857851825594,88.78906647349848,61.14746543778802,18466.666666666664
111.80810073516943,88.78595317725754,61.16027310697718,18500.0
111.91433217759504,88.73409837071584,61.45288576600903,18533.333333333336
111.72015280292105,88.79888619557545,61.20372188641037,18566.666666666668
112.08528428093643,88.75353625233959,61.630173974410106,18600.0
111.70999662483507,88.85041882728359,61.2919824491424,18633.33333333333
111.95972814580713,88.78797827621122,61.66656438894173,18666.666666666668
111.97623577061151,88.7912920744991,61.666901905434024,18700.0
111.75278451106136,88.89334478843853,61.320625326010244,18733.333333333336
111.98478107452978,88.84314688104078,61.55542941302814,18766.666666666664
111.75681936731002,88.95969746248964,61.26639256236384,18800.0
112.14923785891527,88.93012037051308,61.509702079127045,18833.33333333333
111.44264525993886,88.77845565749236,61.14029051987768,18866.666666666668
111.64862998987452,88.92867662851708,61.182489030713995,18900.0
111.95316191586636,88.79945383694886,61.50276149857323,18933.33333333333
111.68345555521464,88.80289036850664,61.16111810008898,18966.666666666664
111.65441896024466,88.52039755351683,61.333211009174306,19000.0
111.36588685015293,88.5460397553517,61.02914373088685,19033.333333333336
112.02226074683195,88.5151268755178,61.51607805835967,19066.666666666668
112.04794268356295,88.50406553956614,61.532800466386426,19100.0
111.60174588076462,88.46612561750177,61.00555368046393,19133.33333333333
111.78589861751152,88.2416129032258,61.24242703533026,19166.666666666668
111.47740399385559,88.32030721966206,60.92540706605223,19200.0
111.71443932411673,88.26569892473118,61.2221658986175,19233.333333333336
111.11301776951449,88.14651467585114,60.855481727574755,19266.666666666664
111.34003058103977,88.27842507645259,60.982308868501526,19300.0
111.89319137185112,88.32676198950632,61.36737136019146,19333.33333333333
111.6302813660213,88.40934613850449,61.098386057500534,19366.666666666668
111.82442396313364,88.23718894009217,61.22752688172043,19400.0
111.387125382263,88.29934250764526,60.93094801223242,19433.33333333333
111.77414746543779,88.3068509984639,61.24466973886329,19466.666666666664
111.81617511520737,88.2884639016897,61.29417818740399,19500.0
111.58909370199692,88.36758832565285,60.99356374807988,19533.333333333336
112.04481651376149,88.51149847094801,61.613516819571856,19566.666666666668
111.67666666666668,88.61293577981651,61.21246177370031,19600.0
111.89505376344086,88.37035330261135,61.35950844854071,19633.33333333333
111.66729357798164,88.68128440366974,61.216376146788996,19666.666666666668
111.63723241590216,88.69240061162078,61.19321100917432,19700.0
111.93207951070336,88.65617737003059,61.50247706422019,19733.333333333336
111.6546543778802,88.61995391705071,61.073855606758826,19766.666666666664
111.91714285714286,88.57894009216591,61.39646697388633,19800.0
111.52435779816516,88.59845565749237,61.08429663608563,19833.33333333333
111.94361940412998,88.62997453284649,61.49683961829953,19866.666666666668
111.95880764628271,88.62567886839926,61.53240158325918,19900.0
111.69140253444202,88.61211684207295,61.15353932067135,19933.33333333333
111.71463302752295,88.31126911314985,61.28922018348624,19966.666666666664
111.42276758409788,88.26605504587157,60.92042813455658,20000.0
111.83660550458715,88.12307339449544,61.43657492354741,20033.333333333336
111.20918040781493,87.92402999177055,60.87165107135239,20066.666666666668
111.54643625192013,88.09251920122887,60.93167434715822,20100.0
111.857910906298,87.94466973886328,61.27081413210446,20133.33333333333
111.4983180428135,88.05321100917429,61.02374617737004,20166.666666666668
111.76282874617736,87.97310397553517,61.221467889908254,20200.0
111.24354597823769,87.89281904355512,60.847130360571796,20233.333333333336
111.8684485407066,88.01052227342552,61.17202764976958,20266.666666666664
111.898955453149,88.01909370199692,61.216743471582184,20300.0
111.27428449510805,87.9299887226066,60.87780791855894,20333.33333333333
112.01362339296124,88.18632444539905,61.30235341045074,20366.666666666668
111.33339937212351,87.97543357005699,60.82875125727696,20400.0
111.78707951070338,88.08504587155964,61.14659021406728,20433.33333333333
111.56296636085628,88.15128440366973,60.975917431192656,20466.666666666664
111.30909201743424,88.03264348197142,60.87419610472736,20500.0
111.96983180428137,88.19987767584101,61.4726146788991,20533.333333333336
111.64403669724771,88.31107033639142,61.10191131498471,20566.666666666668
111.89113149847095,88.2232874617737,61.414770642201844,20600.0
111.6011009174312,88.36874617737007,61.086697247706425,20633.33333333333
111.84348623853212,88.3539755351682,61.34551987767585,20666.666666666668
111.90522935779819,88.34003058103977,61.376055045871574,20700.0
111.63146788990828,88.44181957186544,61.04443425076453,20733.333333333336
111.81721712538229,88.41347094801223,61.34773700305811,20766.666666666664
111.41400225547869,88.3530128928038,61.023133896187026,20800.0
111.61719345301594,88.32712060715048,61.26395196440002,20833.33333333333
111.40434027248621,88.36209576640556,60.9492212502667,20866.666666666668
111.42537108720171,88.33157060562651,60.98221524581671,20900.0
111.63535920021944,88.24479563534395,61.16801792191167,20933.33333333333
111.42157639672041,88.2378920418178,60.940549849126775,20966.666666666664
111.69476175306058,87.99440222090746,61.33861253963197,21000.0
111.56316513761469,88.0471406727829,60.95446483180429,21033.333333333336
111.87155963302752,87.92717125382264,61.290565749235476,21066.666666666668
111.90394495412843,87.91882262996944,61.31307339449542,21100.0
111.55614678899084,87.96252293577982,60.86376146788992,21133.33333333333
111.78397553516821,87.92451070336392,61.167752293577976,21166.666666666668
111.48025993883793,87.97162079510704,60.878394495412856,21200.0
111.71379204892969,87.90738532110092,61.09662079510704,21233.333333333336
111.48761467889908,87.96743119266056,60.79059633027524,21266.666666666664
111.44181957186544,87.97382262996942,60.79896024464832,21300.0
111.86082191780821,88.02506849315071,61.301415525114145,21333.33333333333
111.92094443251206,88.29158356601515,61.0730723205793,21366.666666666668
112.18342487189716,88.25367432726826,61.363796753704996,21400.0
112.12586212228993,88.32816317693998,61.06626356972753,21433.33333333333
112.22523619438068,88.18291386033322,61.43539910300079,21466.666666666664
112.2741396051354,88.17246428186121,61.478584529075405,21500.0
112.13184672006928,88.4038443695296,61.0598150496397,21533.333333333336
112.18074071790764,88.19314766579843,61.27552671732195,21566.666666666668
111.85868409290569,88.3683245226022,61.01447220381302,21600.0
112.11015211996978,88.32361327312239,61.266371776890715,21633.33333333333
111.6747158218126,88.28099846390171,60.98748079877112,21666.666666666668
111.52139143730888,88.2575993883792,61.007400611620795,21700.0
111.9179908675799,88.41901065449011,61.488782343987815,21733.333333333336
111.72639269406393,88.50313546423132,61.25115677321156,21766.666666666664
111.9078134556575,88.3248012232416,61.3854128440367,21800.0
111.90602446483182,88.67333333333335,61.280489296636105,21833.33333333333
112.10152905198778,88.6419266055046,61.53729357798164,21866.666666666668
112.09133027522935,88.66386850152905,61.53385321100918,21900.0
111.79697247706423,88.72818042813455,61.24059633027523,21933.33333333333
112.17699671688507,88.67891442422754,61.64477923353074,21966.666666666664
111.91142518070991,88.55388930844751,61.23372840343386,22000.0
111.93625192012287,88.27637480798771,61.38678955453149,22033.333333333336
111.94053573072321,88.57083243840323,61.263646405449364,22066.66666666667
111.92881470344574,88.5778896014237,61.255131784848565,22100.0
112.03794522448099,88.27811599340352,61.343942172834176,22133.33333333333
111.56958525345621,88.1741628264209,60.87506912442397,22166.66666666667
112.0721452460583,88.24050984079035,61.28585299693295,22200.0
111.85350554074257,88.25942080360035,61.059892421743754,22233.333333333336
111.82784946236559,88.08943164362519,61.161689708141324,22266.666666666664
111.73076452599388,88.07677370030581,61.20652905198777,22300.0
111.69646788990826,88.3409021406728,61.10533639143731,22333.33333333333
111.92674311926608,88.26331804281347,61.3358868501529,22366.66666666667
111.35529968597824,88.16697765439403,61.0592090292632,22400.0
111.9696194824962,88.27584474885845,61.53710806697108,22433.33333333333
111.50743119266056,88.22172782874618,60.90854740061162,22466.666666666664
111.50848623853213,88.21992354740061,60.92246177370031,22500.0
111.94380517503805,88.25079147640791,61.48955859969558,22533.333333333336
111.68782343987823,88.41243531202434,61.22943683409437,22566.66666666667
111.8382262996942,88.24007645259941,61.367400611620795,22600.0
111.76689602446484,88.57067278287462,61.24122324159023,22633.33333333333
111.86983180428138,88.36655963302753,61.34371559633028,22666.66666666667
112.00207373271893,88.39986175115206,61.351336405529956,22700.0
111.70952380952382,88.5489093701997,61.0826574500768,22733.333333333336
111.8541743119266,88.5164373088685,61.385107033639144,22766.666666666664
111.781490015361,88.62407066052229,61.199370199692794,22800.0
111.92178899082569,88.62772171253825,61.472339449541295,22833.33333333333
111.7278134556575,88.7104740061162,61.20686544342507,22866.66666666667
111.72003058103977,88.714250764526,61.19915902140673,22900.0
112.18539170506912,88.60187403993855,61.65749615975422,22933.33333333333
111.83004608294931,88.67093701996927,61.30706605222734,22966.666666666664
111.97428134556576,88.52730886850155,61.58733944954129,23000.0
111.66169724770643,88.5346636085627,61.23859327217126,23033.333333333336
111.96801223241593,88.39048929663609,61.483256880733954,23066.66666666667
112.19506919088093,88.54389248565556,61.577797551471264,23100.0
111.63707951070336,88.45571865443424,61.205672782874615,23133.33333333333
111.97273425499232,88.38955453149002,61.42640552995392,23166.66666666667
111.65840978593272,88.39859327217125,61.114464831804284,23200.0
111.88262996941894,88.35987767584099,61.398134556574924,23233.333333333336
111.77580645161294,88.43357910906298,61.05657450076805,23266.666666666664
111.75901689708141,88.42886328725037,61.058725038402464,23300.0
112.03648233486945,88.36112135176651,61.33855606758833,23333.33333333333
111.67287461773701,88.42652905198776,61.22793577981652,23366.66666666667
112.40509840790348,88.55368894779835,61.66982106252793,23400.0
111.7889708141321,88.45445468509985,61.21678955453149,23433.33333333333
111.85426458655479,88.24413246168685,61.40432046787207,23466.666666666664
111.91398870125694,88.21847298559334,61.49126567356125,23500.0
111.85758832565284,88.51529953917051,61.179370199692784,23533.333333333336
112.13531490015362,88.4738095238095,61.452795698924724,23566.66666666667
111.8821351766513,88.61858678955454,61.20082949308756,23600.0
112.11829493087559,88.62723502304148,61.51651305683564,23633.33333333333
112.10870335835271,88.89293035155588,61.34603825347163,23666.66666666667
112.14136214416719,88.87583804694604,61.351509640429704,23700.0
112.39330795431778,88.90915956413853,61.63065826179431,23733.333333333336
112.16861119245412,89.00422298599018,61.36114236394742,23766.666666666664
112.40297150255074,89.02556910130545,61.59949447466979,23800.0
112.23661051431036,89.11987731763328,61.441302035972434,23833.33333333333
112.65058644020776,89.15211996979177,61.901699983046406,23866.66666666667
112.24215747814505,88.84307301315123,61.761103541191424,23900.0
111.88576452599388,89.05934250764527,61.38377675840979,23933.33333333333
112.20126911314985,88.94114678899084,61.78457186544343,23966.666666666664
112.12784204228159,89.1420177349575,61.4695007824246,24000.0
112.12685015290519,88.86626911314985,61.724342507645254,24033.333333333336
111.84363914373093,88.84984709480123,61.4626146788991,24066.66666666667
111.85475535168196,88.83766055045872,61.434755351681964,24100.0
112.21523809523808,88.76983102918587,61.71552995391705,24133.33333333333
112.02774193548387,88.75706605222734,61.41548387096774,24166.66666666667
112.20497695852535,88.66560675883257,61.625852534562206,24200.0
111.9646636085627,88.78577981651377,61.47374617737003,24233.333333333336
112.10990783410138,88.55897081413212,61.55038402457758,24266.666666666664
112.1288940092166,88.55929339477726,61.55193548387096,24300.0
112.03287717468012,88.70215703721888,61.363796753704996,24333.33333333333
112.4768891697363,88.66837230091087,61.71334556047039,24366.66666666667
111.90775729646695,88.5712135176651,61.322672811059896,24400.0
112.12958525345623,88.50278033794163,61.62672811059908,24433.33333333333
111.75232415902141,88.5812232415902,61.335045871559636,24466.666666666664
111.74152905198777,88.58740061162081,61.32733944954129,24500.0
112.2062992850787,88.67003160381702,61.669402595808656,24533.333333333336
111.99840446749106,88.73170507195238,61.460433862109184,24566.66666666667
112.38698888769017,88.70903010033446,61.702094539401685,24600.0
111.86804915514593,88.64517665130569,61.32723502304147,24633.33333333333
112.23547912000244,88.77001319382653,61.68262710564265,24666.66666666667
112.37863538985559,88.79170198665291,61.666692353929385,24700.0
111.87617511520736,88.74718894009216,61.25322580645161,24733.333333333336
112.05276497695853,88.68278033794162,61.544347158218116,24766.666666666664
111.87162826420892,88.7794777265745,61.25250384024577,24800.0
112.42094231154543,88.91971702911394,61.766086648274594,24833.33333333333
111.95549384799484,89.00443373937591,61.496241293608655,24866.66666666667
112.2026660919894,89.15116064281756,61.608537035896795,24900.0
112.4686903515793,89.09983991133551,61.93373252878517,24933.33333333333
112.07991307430298,89.11079943899021,61.55257925804911,24966.666666666664
112.17450076804916,89.01941628264208,61.793901689708136,25000.0
111.90151376146791,89.05237003058106,61.68883792048929,25033.333333333336
112.00943425076453,88.9652140672783,61.81084097859328,25066.66666666667
112.01740061162079,88.95784403669725,61.796085626911314,25100.0
111.66120795107037,88.90461773700306,61.46426605504588,25133.33333333333
111.92163608562693,88.7343883792049,61.6258868501529,25166.66666666667
111.637125382263,88.65243119266056,61.29922018348624,25200.0
111.85437308868502,88.5437614678899,61.53743119266056,25233.333333333336
111.68539170506912,88.5115821812596,61.14847926267282,25266.666666666664
111.55247706422018,88.49918960244648,61.158211009174316,25300.0
112.19301340860972,88.54654659261759,61.709152833604364,25333.33333333333
111.62750764525995,88.44946483180429,61.165795107033645,25366.66666666667
111.9784331797235,88.36509984639017,61.457357910906296,25400.0
111.7140706605223,88.40304147465437,61.199723502304145,25433.33333333333
111.80983180428137,88.3780886850153,61.46247706422019,25466.666666666664
111.94552995391705,88.39282642089094,61.451290322580654,25500.0
111.68268817204302,88.46072196620584,61.17250384024578,25533.333333333336
111.89717357910908,88.42629800307219,61.407480798771104,25566.66666666667
111.55048929663609,88.47507645259941,61.17178899082569,25600.0
111.82032110091744,88.47256880733946,61.44613149847096,25633.33333333333
111.96331858884454,88.72040442026417,61.315907094308216,25666.66666666667
111.70466973886327,88.57001536098309,61.23949308755761,25700.0
111.93156682027652,88.57095238095238,61.488894009216594,25733.333333333336
111.6888532110092,88.59518348623855,61.3245259938838,25766.666666666664
112.05678899082571,88.58686544342508,61.73871559633028,25800.0
111.704877675841,88.73310397553516,61.417308868501536,25833.33333333333
111.95970948012231,88.65587155963303,61.687614678899095,25866.66666666667
112.02009174311928,88.64510703363916,61.740963302752284,25900.0
111.87,88.79278033794162,61.39122887864824,25933.33333333333
111.96357798165138,88.72535168195719,61.67704892966361,25966.666666666664
111.92996532785124,88.9363627995459,61.4865146819674,26000.0
111.9489602446483,88.6867125382263,61.65463302752293,26033.333333333336
111.7884485407066,88.69410138248848,61.36417818740399,26066.66666666667
111.62620795107034,88.69062691131502,61.33600917431193,26100.0
111.99678955453147,88.57248847926267,61.57691244239631,26133.33333333333
111.7168509984639,88.53139784946238,61.315529953917036,26166.66666666667
111.93952380952379,88.3810291858679,61.48519201228879,26200.0
111.66115207373272,88.33536098310292,61.15354838709678,26233.333333333336
112.10798771121351,88.19124423963133,61.598294930875575,26266.666666666664
112.13531490015362,88.18092165898621,61.65015360983103,26300.0
111.72024577572964,88.2152688172043,61.26674347158218,26333.33333333333
112.00459293394778,88.10542242703535,61.50655913978497,26366.66666666667
111.73766513056835,88.19010752688172,61.22732718894011,26400.0
112.20540049011299,88.29657999784227,61.58941479278085,26433.33333333333
111.9647211133887,88.38208775796434,61.306012360710824,26466.666666666664
111.72112135176651,88.25274961597542,61.178294930875566,26500.0
111.89420489296637,88.19382262996945,61.49978593272171,26533.333333333336
111.43395105001676,88.12996433905329,61.163918437014246,26566.66666666667
111.99918586789556,88.24944700460829,61.47625192012289,26600.0
111.74549923195083,88.31804915514593,61.19706605222734,26633.33333333333
111.6906471515838,88.19475787314173,61.385305510050976,26666.66666666667
111.94368663594472,88.34161290322581,61.48606758832565,26700.0
111.75855606758832,88.40181259600617,61.15866359447004,26733.333333333336
111.92029626017252,88.38294370447134,61.64355817001432,26766.666666666664
111.5206760873892,88.3158748870891,61.17171639848738,26800.0
111.79614801659599,88.28236140667818,61.49141877306061,26833.33333333333
111.53874182831423,88.4039530290736,61.21914662339054,26866.66666666667
111.51548601436072,88.41477716367866,61.222851631275155,26900.0
112.02374807987712,88.51749615975424,61.60665130568356,26933.33333333333
112.0436477968035,88.74754558204769,61.48414839017925,26966.666666666664
112.0268509984639,88.59913978494623,61.602903225806465,27000.0
111.72397849462364,88.67447004608293,61.251935483870966,27033.333333333336
111.74214982317007,88.40332532112619,61.4493011007854,27066.66666666667
111.75790376165469,88.36635179202963,61.48290644089594,27100.0
111.94127891743601,88.63452676355902,61.320315028589924,27133.33333333333
112.08526116240002,88.49954533544997,61.544456945578965,27166.66666666667
111.87019712405407,88.47363716227673,61.29722731686266,27200.0
112.1835611793536,88.28645407888047,61.608402817378966,27233.333333333336
111.58703533026112,88.06695852534563,61.011428571428574,27266.666666666664
111.43651376146788,88.04114678899082,61.00990825688074,27300.0
111.83149001536098,87.9201075268817,61.33603686635945,27333.33333333333
111.54752688172043,87.99081413210446,60.95537634408603,27366.66666666667
112.06658138495443,88.01945039532697,61.40341846092196,27400.0
111.43155963302752,87.93649847094801,61.009250764525994,27433.33333333333
111.75453149001535,87.89740399385559,61.29076804915515,27466.666666666664
111.77508448540706,87.90027649769587,61.33388632872504,27500.0
111.96262332601368,88.23916741409704,61.18948133485912,27533.333333333336
111.97834563753216,88.06038561718786,61.37647765978762,27566.66666666667
111.50920122887864,87.98092165898619,61.00717357910906,27600.0
112.18272353323229,88.23315188816379,61.42673120341448,27633.33333333333
111.86252339602957,88.29776625448744,61.337439783989446,27666.66666666667
111.87295572397288,88.28546224417784,61.293286490135316,27700.0
112.14213276204865,88.12659710555924,61.51800933988873,27733.333333333336
111.74588104742382,88.2840343387328,61.19991369079728,27766.666666666664
112.28231218878548,88.33233847771628,61.66190888565862,27800.0
111.78926683414764,88.31989889493393,61.18135721221275,27833.33333333333
111.76976958525343,88.16745007680491,61.2994470046083,27866.66666666667
112.02045219857278,88.30992709954842,61.42206741365226,27900.0
111.91821503778029,88.43928836863621,61.11736653041,27933.33333333333
112.02173142425598,88.38298167470678,61.49003591079329,27966.666666666664
111.79510811768877,88.47240417366646,61.2428216944346,28000.0
112.10568253625758,88.39233697578719,61.59826148605954,28033.333333333336
111.801982029191,88.52533020976219,61.285560162138005,28066.66666666667
111.56087557603684,88.42190476190477,61.16190476190477,28100.0
111.77384024577572,88.3562826420891,61.393640552995386,28133.33333333333
111.56603686635944,88.36625192012289,61.09596006144393,28166.66666666667
112.09475517469907,88.36755390472082,61.56817656396899,28200.0
111.4064525993884,88.09840978593273,61.0541131498471,28233.333333333336
111.98520413667678,88.17590123761231,61.41616448068061,28266.666666666664
112.02091456930168,88.15228950572569,61.40559160334757,28300.0
111.73210239970408,88.1479432208745,61.04945825562937,28333.33333333333
111.48299830059557,87.7728922026425,61.15519696250593,28366.66666666667
110.96393971194357,87.58443217593648,60.72546425149427,28400.0
110.9269406392694,87.51039748484169,61.058417546223524,28433.33333333333
110.68341941762108,87.55507148738678,60.74487611348154,28466.666666666664
110.48007878950666,87.42552302503954,60.659071238845605,28500.0
111.07685952895935,87.47201694304253,60.95594508531602,28533.333333333336
110.96289765962898,87.58821224588213,60.70164413701645,28566.66666666667
111.3344219661919,87.6907526686625,61.11383773322446,28600.0
111.05620067132358,87.73534125616136,60.877513683510244,28633.33333333333
111.81889908256882,87.90203363914374,61.41238532110092,28666.66666666667
111.4754325998718,87.64079714346752,61.2379680776391,28700.0
111.50227342549923,88.01281105990783,60.93215053763441,28733.333333333336
111.73668202764976,87.94814132104455,61.2158064516129,28766.666666666664
111.57783410138248,88.02877112135175,61.0473886328725,28800.0
111.81084485407068,88.04688172043011,61.32654377880184,28833.33333333333
111.594777265745,88.15413210445469,61.07903225806453,28866.66666666667
111.57597542242705,88.15958525345621,61.05164362519202,28900.0
111.81261136712747,88.1748694316436,61.32586789554532,28933.33333333333
111.81465098716153,88.42203658893702,61.20228719387205,28966.666666666664
111.87870967741935,88.2615821812596,61.389861751152075,29000.0
111.577311827957,88.37408602150538,61.05033794162826,29033.333333333336
111.66006116207953,88.2147247706422,61.3832874617737,29066.66666666667
111.6853975535168,88.21917431192661,61.428654434250774,29100.0
111.53491551459294,88.29940092165899,61.128801843317966,29133.33333333333
111.72114678899084,88.14847094801223,61.48649847094802,29166.66666666667
111.33743119266056,88.08237003058106,61.03819571865444,29200.0
111.95431777198958,88.07806359138758,61.41058520721915,29233.333333333336
111.53462612377649,88.08292166549047,61.08276824890307,29266.666666666664
111.50785932721712,88.11857798165138,61.11691131498471,29300.0
112.03875302997757,88.16107207511276,61.56021601055507,29333.33333333333
111.27727828746178,87.90529051987768,60.96012232415902,29366.66666666667
111.47527522935779,87.84428134556576,61.1959633027523,29400.0
111.41717357910906,87.9220737327189,60.93907834101383,29433.33333333333
111.68179723502304,87.88503840245775,61.26961597542242,29466.666666666664
111.74456221198156,87.87815668202767,61.31749615975422,29500.0
111.31556574923547,87.93443425076453,60.95600917431193,29533.333333333336
111.48773202474928,87.92570636105947,61.218430918345575,29566.66666666667
111.6849251730037,88.09597275095172,60.998011805865936,29600.0
111.835821812596,87.9904608294931,61.35800307219662,29633.33333333333
111.16277545795359,87.91509951537687,60.91360602273768,29666.66666666667
111.38024464831804,88.04918960244648,61.01348623853212,29700.0
111.9150378938971,88.096115492007,61.45741155533737,29733.333333333336
111.36244648318045,88.10998470948013,61.031391437308855,29766.666666666664
112.00329824453249,88.28842686065687,61.4868917898371,29800.0
111.20239873205523,88.08331555365906,61.09052394160139,29833.33333333333
111.71422018348623,88.21215596330276,61.48600917431193,29866.66666666667
111.85279569892474,88.2205222734255,61.49129032258065,29900.0
111.27778963089395,88.1939254472858,61.024825505196745,29933.33333333333
110.85412003461964,87.87034052586027,61.173053391828574,29966.666666666664
110.49034462269756,87.93010992275698,60.89766785502079,30000.0
110.99490131578949,87.94648624401914,61.24277811004786,30033.333333333336
111.02200220022004,88.02239402022394,60.970402519704024,30066.66666666667
111.21379539750221,88.18372191478424,61.04794520547945,30100.0
111.60609893626749,88.02759913438385,61.29377609802189,30133.33333333333
111.41937308868502,88.10824159021408,60.997767584097865,30166.66666666667
111.74337899543379,88.09473363774734,61.512846270928456,30200.0
111.50567641373385,88.04021048755791,60.99912552545181,30233.333333333336
111.79305636525422,87.95626093093183,61.324905648798754,30266.666666666664
111.80976343162224,87.95576999785217,61.34337700592188,30300.0
111.4691172409561,87.95949802092602,60.976297137246476,30333.33333333333
111.70835506734987,87.91540609370684,61.314166487680644,30366.66666666667
111.48783406461908,87.97453284649136,60.98033199349514,30400.0
111.85444569455791,87.96646270980072,61.2173758919902,30433.33333333333
110.78182828646959,87.66056837298727,60.85261956260514,30466.666666666664
110.94199556941996,87.80541615805419,60.897523998975245,30500.0
111.01158860453889,87.50016598261709,60.87750482858522,30533.333333333336
110.80077559150169,87.55110755673587,60.6499728392081,30566.66666666667
111.06709625090122,87.58537611151165,61.211682888728674,30600.0
110.7044236533745,87.56633966148908,60.52641777939262,30633.33333333333
111.3890700722363,87.70383126581122,61.05190648907313,30666.66666666667
111.42273461550184,87.69650096010241,61.05856624706635,30700.0
111.27581039755351,87.94727828746176,60.79611620795106,30733.333333333336
111.48853211009177,87.93458715596329,61.14503058103976,30766.666666666664
111.23350152905199,88.0014373088685,60.85140672782875,30800.0
111.45565749235477,87.98778287461775,61.14996941896025,30833.33333333333
111.23577981651377,88.06816513761468,60.868944954128466,30866.66666666667
111.45549384799484,88.22234666012089,60.93703783253045,30900.0
111.82490020498436,88.22916634557589,61.206433118074074,30933.33333333333
111.52815067120821,88.34360310096636,60.94314381270904,30966.666666666664
111.52655913978495,88.2010138248848,61.090660522273424,31000.0
111.31800307219662,88.28546850998464,60.85434715821813,31033.333333333336
111.70568356374807,88.23248847926267,61.40307219662058,31066.66666666667
111.72637480798772,88.23491551459293,61.443609831029185,31100.0
111.32855606758831,88.24780337941627,60.95331797235023,31133.33333333333
111.59619047619049,88.09353302611368,61.14725038402458,31166.66666666667
111.20779816513763,88.0968654434251,60.85474006116208,31200.0
111.4102752293578,87.9954740061162,61.13478593272172,31233.333333333336
111.31853886042158,88.0767850019944,60.8706698168206,31266.666666666664
111.31346077137859,88.06854653125096,60.88604215887822,31300.0
111.54335552759964,87.98665275689608,61.17486422632015,31333.33333333333
111.33208554508913,88.00635144671841,60.9212359240281,31366.66666666667
111.6707612163433,87.96162322950542,61.21412388453062,31400.0
111.13912442396317,87.88763440860218,60.75655913978497,31433.33333333333
111.29033639143732,87.78506116207953,61.05717125382263,31466.666666666664
111.29506116207952,87.79024464831804,61.087370030581035,31500.0
111.17890937019968,87.88228878648233,60.7768049155146,31533.333333333336
111.59337941628263,87.79920122887863,61.231351766513065,31566.66666666667
110.94396558323255,87.76193027848798,60.61181621936096,31600.0
111.33270642201836,87.82683486238533,61.10071865443425,31633.33333333333
111.06371559633028,87.97515290519878,60.86802752293578,31666.66666666667
111.02735474006116,87.98495412844038,60.84090214067279,31700.0
111.33029051987768,87.92322629969419,61.159434250764534,31733.333333333336
111.22420890937022,88.04509984639017,60.85345622119816,31766.666666666664
111.48135176651306,88.06150537634409,61.196712749615976,31800.0
111.39188733085821,88.27446227486116,61.0521616397165,31833.33333333333
111.60401644625816,88.27579699917155,61.261513914884475,31866.66666666667
111.61816145561659,88.29113865791169,61.294805314350604,31900.0
111.17188073394495,88.23016819571865,60.97444954128441,31933.33333333333
111.47766513056835,88.25534562211979,61.162795698924725,31966.666666666664
111.3723113743058,88.45695130557516,61.06833174802861,32000.0
111.87699397376815,88.32825239276852,61.50658878288611,32033.33333333333
111.50526332013008,88.30820091549404,61.02569240016646,32066.66666666667
111.4829308139266,88.31576838308956,61.03366058906032,32100.0
111.739901052664,88.11514572384138,61.29023010649939,32133.33333333333
111.50813001864896,88.14866760168303,61.020945394016934,32166.666666666664
111.6866051199852,88.03492440238584,61.23351263042707,32200.000000000004
111.63792410231035,88.14250146908732,60.95224693038072,32233.333333333336
111.62121048656813,87.91962455496818,61.103447744401464,32266.666666666664
111.62600372979055,87.92565078680086,61.09735986313826,32300.0
111.34312531787987,87.97327497187244,60.809780682150965,32333.333333333336
111.63397191868441,87.89474900975603,61.10392552748794,32366.66666666667
111.3751059599587,87.94073948491898,60.83320746574604,32400.0
111.6072160658416,87.89370096943729,61.060755513770935,32433.33333333333
111.39970408273355,87.9134904366321,60.773977775380295,32466.66666666667
111.39916465021656,87.89228303253547,60.781098284604596,32500.0
111.78743276358983,87.8194288180263,61.22620717291125,32533.33333333333
111.38910038068524,87.91550945548141,60.87700938612579,32566.66666666667
111.58623546377834,87.82403117425056,61.28316099536682,32600.0
111.30921113190756,87.94835997668068,60.895277837439785,32633.33333333333
111.67355085307399,87.93791902347303,61.152828938242685,32666.666666666664
111.56040011045994,87.93792764873739,61.211898990518854,32700.000000000004
111.42046452845892,88.06087881263197,60.815452429758174,32733.333333333336
111.65628901253024,88.0567483007876,61.12232788249619,32766.666666666664
111.40898232202579,88.16227671346886,60.89182066180664,32800.0
111.68762233558869,88.11747298984328,61.23855247137155,32833.333333333336
111.37801889555044,88.23590154585949,60.93397345992017,32866.666666666664
111.37005070665657,88.23557788634928,60.9493858175485,32900.0
111.63139805496048,88.21031703219641,61.19891188755144,32933.33333333333
111.4281707072731,88.3121464790469,60.97230399334185,32966.66666666667
111.80242898756224,88.28184578394959,61.428879675724,33000.0
111.00568807339451,88.1380122324159,60.90498470948013,33033.33333333333
111.7253671994205,88.08609342971195,61.28768706749072,33066.66666666667
111.51344086021506,87.93952380952379,61.19709677419355,33100.0
111.15270353302613,87.99740399385561,60.80635944700462,33133.333333333336
111.40454419931885,87.96856494124144,61.136985670890745,33166.666666666664
111.14783222362,87.90417599950906,60.819259918382365,33200.0
111.41338099475315,87.77825166456999,61.09666779172164,33233.333333333336
110.91044342507648,87.62856269113148,60.61992354740062,33266.666666666664
110.90613149847096,87.61992354740063,60.6462385321101,33300.0
111.3294777265745,87.54801843317972,60.94708141321045,33333.333333333336
111.19062980030722,87.59184331797233,60.81686635944701,33366.666666666664
111.34113671274963,87.53428571428572,60.893794162826424,33400.0
111.32600218855478,87.70909174976498,60.82903071682875,33433.33333333333
111.49782148445892,87.62081556257863,61.12739713417815,33466.66666666667
111.53706544751621,87.596115492007,61.21308029824186,33500.0
111.11512380718605,87.6813844312847,60.74960878770212,33533.33333333333
111.39782455279064,87.58589794728607,61.077137860145434,33566.66666666667
111.22566045840875,87.67441931821669,60.824522107330246,33600.0
111.41677150133472,87.66064250866802,61.06316160903317,33633.333333333336
111.14557699978522,87.75740235034212,60.69216961737904,33666.666666666664
111.13252124819736,87.76396858028289,60.69193949249793,33700.0
111.52460582895365,87.74512584190002,60.90880507991307,33733.333333333336
111.30080298383244,87.84132977821619,60.75532882265,33766.666666666664
111.49566142132765,87.85786723795141,61.04999768814636,33800.0
111.24659772205356,87.92696083719927,60.809148775488175,33833.333333333336
111.51481898185966,87.8973536981952,61.00651942727679,33866.666666666664
111.50651172109798,87.90459750628055,61.034554505802745,33900.0
111.27688300479325,88.00781406531758,60.756577223617896,33933.33333333333
111.38312038592545,88.03914738837601,61.01370158593161,33966.66666666667
111.18539524991137,88.10466532065409,60.78327142703019,34000.0
111.47613396421251,87.97369110552843,61.08469090516777,34033.33333333333
111.18185040765688,88.05055253302099,60.72447328267806,34066.66666666667
111.17580876346656,88.04381733273739,60.72186859423886,34100.0
111.211044546851,87.75195084485406,60.89895545314901,34133.333333333336
111.13402586193612,87.88477721437046,60.61624770741179,34166.666666666664
111.37535255768076,87.75135243438189,60.822542114267215,34200.0
110.6882262996942,87.52992354740061,60.36538226299695,34233.333333333336
111.34844258126164,87.54903441579458,60.78173019126736,34266.666666666664
111.16706605222734,87.39339477726574,60.69402457757297,34300.0
110.67405116585267,87.28396895142153,60.31472664084389,34333.333333333336
111.33523419077416,87.48810936608973,60.75273954656844,34366.666666666664
110.90637480798773,87.36755760368662,60.427649769585244,34400.0
111.45084228534441,87.43994574850115,60.86837846585392,34433.33333333333
111.11042954240708,87.49914461415163,60.50185718909422,34466.66666666667
111.09719032720436,87.50450811460631,60.4847186474115,34500.0
111.14304147465435,87.24611367127495,60.76884792626728,34533.33333333333
111.1460012638133,87.49203951728497,60.542900297458495,34566.66666666667
111.11880184331795,87.35477726574501,60.71557603686636,34600.0
111.14902208590848,87.56988733566574,60.58315737558375,34633.333333333336
111.18909370199692,87.43184331797234,60.70247311827957,34666.666666666664
111.19508448540708,87.43866359447004,60.745268817204284,34700.0
111.22016552872091,87.63751676093894,60.58053727478693,34733.333333333336
111.48185194889263,87.60781714778909,60.81514418260562,34766.666666666664
111.17328113681549,87.73213322441934,60.56899341892329,34800.0
111.17960061443931,87.60463901689708,60.76737327188941,34833.333333333336
110.95970814132104,87.72846390168971,60.5115975422427,34866.666666666664
110.95370199692779,87.72284178187405,60.53357910906298,34900.0
111.34396313364056,87.7289247311828,61.009431643625184,34933.33333333333
111.1380122324159,87.98680428134556,60.77851681957187,34966.66666666667
111.16035234234508,87.74744734676462,61.006842634642936,35000.0
111.20589368555709,87.98041089345438,60.749410477320716,35033.33333333333
111.42709184223914,87.83786199774981,60.92561996208561,35066.66666666667
111.45934990675524,87.82664180139635,60.935699643974544,35100.0
111.15287517531557,87.78607647611855,60.65255922198418,35133.333333333336
111.3652112263613,87.6412003144121,60.90253225035834,35166.666666666664
111.10817933819337,87.56689733828584,60.53175716289321,35200.0
111.30044849960699,87.48940400413052,60.75312485550915,35233.333333333336
110.89973886328724,87.34528417818741,60.34009216589862,35266.666666666664
111.14299585407579,87.47742860225328,60.40822711650201,35300.0
111.20408602150538,87.23115207373272,60.61006144393241,35333.333333333336
111.24718339164343,87.43986868671301,60.4385586363146,35366.666666666664
111.50853073994728,87.37356472419586,60.809796094508584,35400.0
111.21104141300495,87.39358537675508,60.4319775596073,35433.33333333333
111.40317186319992,87.3712991076245,60.76248015658955,35466.66666666667
111.21439324116743,87.23695852534563,60.694316436251924,35500.0
111.10175238506235,87.44678883528812,60.49293343402741,35533.33333333333
111.43495214462955,87.41818349952993,60.80628207696932,35566.66666666667
111.1507174452476,87.53474716027311,60.49997688146357,35600.0
111.3318861035255,87.48361510846554,60.8579055567488,35633.333333333336
110.99362519201227,87.47228878648235,60.4500153609831,35666.666666666664
110.98654377880185,87.47308755760368,60.44270353302611,35700.0
111.4893423547,87.60380993480572,60.85424533390873,35733.333333333336
111.0283717357911,87.57953917050692,60.52079877112135,35766.666666666664
110.97032931702313,87.46526937856913,60.641685931687,35800.0
110.9847465437788,87.70370199692779,60.440814132104464,35833.333333333336
111.37138248847928,87.70032258064516,60.969278033794154,35866.666666666664
111.40271889400921,87.69683563748079,61.043732718894006,35900.0
110.93058103975537,87.78866972477064,60.65029051987768,35933.33333333333
111.28683563748079,87.74023041474655,60.91018433179722,35966.66666666667
110.90285932721712,87.8541131498471,60.65238532110092,36000.0
111.53918591927008,87.94468504847187,61.01328545227564,36033.33333333333
111.26333554243791,87.99163108980781,60.691213414916106,36066.66666666667
111.02748079877114,87.84294930875576,60.58488479262672,36100.0
111.29139784946236,87.68013824884792,60.7941935483871,36133.333333333336
110.96347158218126,87.62351766513056,60.489569892473114,36166.66666666666
111.05402481026549,87.48224572525831,60.79132250297175,36200.0
111.1947930410236,87.74285845785644,60.586020680555976,36233.333333333336
110.92140354070904,87.2994280859843,60.760114686205796,36266.66666666666
111.0575840978593,87.29461773700307,60.64799694189602,36300.0
110.66376287949538,87.18258646294225,60.185097294731854,36333.333333333336
111.06623084342512,87.07459007609043,60.680573204525615,36366.66666666666
110.7753360358438,87.27308055716419,60.42884574354598,36400.0
111.08093815721294,87.15082751683991,60.698558322411536,36433.33333333333
111.01154434250765,87.3917737003058,60.496651376146794,36466.66666666667
111.04148318042814,87.36431192660551,60.523853211009175,36500.0
111.39548109674335,87.30944931646195,60.696484441224975,36533.33333333333
110.85981566820276,87.25854070660525,60.28427035330261,36566.66666666667
111.13305683563749,87.18548387096773,60.58399385560676,36600.0
110.87132104454685,87.2785253456221,60.35299539170507,36633.333333333336
110.89215671264758,87.13558491663731,60.5932758699879,36666.66666666666
110.9054610591423,87.15176753372015,60.609320697521326,36700.0
110.67558216084629,87.26123367576588,60.287566789656594,36733.333333333336
111.12302611367129,87.36560675883257,60.63648233486944,36766.66666666666
110.8852688172043,87.4716743471582,60.394654377880194,36800.0
111.25608294930876,87.4889861751152,60.73943164362518,36833.333333333336
111.01686544342509,87.73839449541285,60.58701834862386,36866.66666666666
110.89915514592934,87.59129032258066,60.37271889400922,36900.0
111.49823528505155,87.60424148081933,60.83148128169166,36933.33333333333
111.2069879629487,87.7712652004377,60.54963549774209,36966.66666666667
111.49860518163463,87.70866020375134,60.85680378527504,37000.0
111.22686990428926,87.84892807052697,60.54683044865373,37033.33333333333
111.49555353482424,87.83408597013086,60.78991415316801,37066.66666666667
111.50460058875208,87.83915663579056,60.82753571813881,37100.0
111.20741950896229,87.87972196106838,60.55923739654454,37133.333333333336
111.45389393215478,87.75665428540606,60.83635158670222,37166.66666666666
111.08444430744572,87.74412403865419,60.436031009663544,37200.0
111.30092628269348,87.57572861920687,60.624847802968425,37233.333333333336
111.07055777322256,87.511197077817,60.36630550375291,37266.66666666666
111.09581862737544,87.49012838493904,60.387759505571566,37300.0
111.21308755760369,87.17752688172042,60.65457757296467,37333.333333333336
110.89296466973886,87.15560675883258,60.26686635944702,37366.66666666666
111.12818740399383,87.06099846390171,60.55182795698925,37400.0
111.06883158916821,87.26199466732426,60.28813402586194,37433.33333333333
111.08105990783407,87.02717357910906,60.50494623655914,37466.66666666667
110.86605324800587,86.88568060382444,60.438798475128976,37500.0
111.05079913074304,87.26512337592281,60.25092859454711,37533.33333333333
111.12491551459291,87.0346697388633,60.49182795698925,37566.66666666667
111.08724935653409,87.27373888383707,60.30423993958356,37600.0
111.3715148806313,87.25572183776953,60.61006735200284,37633.333333333336
111.08479879167116,87.35835272721668,60.28246227825471,37666.66666666666
111.07043447436155,87.36954209885486,60.26164018309881,37700.0
110.84035767693106,87.05914487136448,60.33742790002136,37733.333333333336
110.35035147801008,87.11239786109108,60.23238103821197,37766.66666666666
110.61906693102621,87.00112653208363,60.65154109589041,37800.0
110.47530226623732,87.10071997083662,60.0965277355854,37833.333333333336
111.06616960362541,87.16634260605967,60.44293216161182,37866.66666666666
110.99341644061082,87.15014172940352,60.509067633880946,37900.0
110.6576244323204,87.31832728824408,60.228047182175615,37933.33333333333
111.22224270353304,87.50278033794163,60.568755760368674,37966.66666666667
110.9732258064516,87.59095238095242,60.30293394777266,38000.0
111.29357910906296,87.55490015360985,60.645345622119805,38033.33333333333
111.02447004608295,87.62726574500769,60.36039938556068,38066.66666666667
110.98591397849462,87.63450076804916,60.34625192012289,38100.0
111.46733350800673,87.69095140483641,60.74252115346086,38133.333333333336
111.05320487251082,87.64436500874474,60.385812033997105,38166.66666666666
111.30378018471356,87.5050013807493,60.714936638949396,38200.0
111.01836396551195,87.47749378662823,60.38743824982357,38233.333333333336
111.54758565417751,87.2688685788265,60.69509732903842,38266.66666666666
111.57070419062003,87.25618420849838,60.68931769492779,38300.0
110.30066390290794,86.85320535928862,60.11610790675318,38333.333333333336
110.63875871184813,86.71967375630858,60.38632540254746,38366.66666666666
110.21066149963949,86.67055695746214,59.9756669069935,38400.0
110.44209283313653,86.51071850304297,60.141066400218,38433.33333333333
110.55862720594959,86.77346155018441,59.96950531866257,38466.66666666667
110.55611265201622,86.77212045475328,59.94545703922704,38500.0
110.65682361123709,86.7521243460643,60.342783271341744,38533.33333333333
110.78957186544343,86.89874617737007,60.07470948012233,38566.66666666667
111.04448012232416,86.88565749235475,60.434923547400615,38600.0
111.03635973121412,87.10174588076462,60.22889754840293,38633.333333333336
111.27986253873767,87.07927035071032,60.542465711392715,38666.66666666666
111.2896044920377,87.0831978153478,60.551808781565455,38700.0
111.17918406978715,87.19012684370328,60.25558312655087,38733.333333333336
111.5157745480326,87.19020390549143,60.77539571228211,38766.66666666666
111.13032689610529,87.2980595841746,60.324615076368225,38800.0
111.45387851979716,87.24806189602823,60.69078186890249,38833.333333333336
110.90697388632871,87.20391705069125,60.207910906298,38866.66666666666
111.13726245703806,87.34918237442781,60.28355655564632,38900.0
111.52938365981844,87.37783394725894,60.74044048518103,38933.33333333333
111.24100303623446,87.4912534870459,60.43066750920889,38966.66666666667
111.3475115207373,87.36124423963133,60.59923195084485,39000.0
110.35954787034956,87.14312448536569,60.28256606033386,39033.33333333333
110.3425105201898,86.9514579043185,60.48446593249172,39066.66666666667
110.37301160951442,86.9589190318441,60.47678097114036,39100.0
110.16924919529906,87.06028894378322,60.1055767647279,39133.333333333336
110.57657371241709,86.99236987918975,60.25471583855633,39166.66666666666
110.57083346049379,87.0571459089938,59.99314859462264,39200.0
111.00999453186706,86.97789962938211,60.61009174311928,39233.333333333336
110.49510804962057,86.78940229814991,60.04509433387182,39266.66666666666
110.49763784327473,86.77204425614923,60.023255813953504,39300.0
110.9034707656506,86.62388045991091,60.30068741675215,39333.333333333336
110.57266867737341,86.63684798750708,59.8837821700323,39366.66666666666
110.8593474899337,86.50231945741537,60.17777913866222,39400.0
110.61360748350351,86.56196702236784,59.84089900026026,39433.33333333333
110.88716566896824,86.4604314343892,60.1677817413537,39466.66666666667
110.910360243122,86.45983434634168,60.160478895234,39500.0
110.59442411623311,86.52415144602476,59.83691841327678,39533.33333333333
110.8369184132768,86.44133992681843,60.06450081908232,39566.66666666667
110.74677419354843,86.63826420890938,59.862473118279574,39600.0
110.79357594500664,86.4398089318248,60.07570770243581,39633.333333333336
110.66814322628277,86.52424018703087,59.81753722160699,39666.66666666666
110.53652188557342,86.51078585973025,59.83433103173753,39700.0
111.08943952257906,86.49155592469545,60.291728189984006,39733.333333333336
111.14375077418556,86.83463396506875,60.06393224328006,39766.66666666666
111.06039938556069,86.62342549923193,60.3342396313364,39800.0
110.73817204301076,86.76917050691246,59.97806451612904,39833.333333333336
111.2217901234568,86.73842592592592,60.33626543209877,39866.66666666666
111.01782638119849,86.59737603051556,60.24658545588778,39900.0
110.78672942045036,86.69561338747386,59.9802356343054,39933.33333333333
111.24111111111112,86.82631172839504,60.35876543209877,39966.66666666667
111.18372971633842,87.09008423138859,60.12338969404186,40000.0
111.36815498666832,87.02088374458641,60.44965553380701,40033.33333333333
111.0262962962963,86.97510802469137,60.042685185185185,40066.66666666667
111.00751543209877,86.98694444444445,60.01740740740741,40100.0
111.27058641975307,86.99675925925926,60.3762037037037,40133.333333333336
110.69436746941835,86.90784941133242,60.068756985164654,40166.66666666666
111.10928079242036,86.77211763258273,60.4468438538206,40200.0
110.75179723502303,86.81147465437788,60.01078341013825,40233.333333333336
111.2116049382716,86.65354938271605,60.33296296296298,40266.66666666666
111.45193856063422,86.7856435030348,60.444072835377185,40300.0
111.09426483339529,86.78022420413727,59.990972996407784,40333.333333333336
111.11621913580248,86.49163580246912,60.203225308641976,40366.66666666666
110.85444444444445,86.54623456790121,59.892654320987646,40400.0
111.09441358024692,86.4737037037037,60.13916666666667,40433.33333333333
111.3197396221725,86.77095761869249,60.06953765846383,40466.66666666667
111.29023738503605,86.78517275664926,60.033681332339036,40500.0
111.34793447293447,86.56243032329986,60.26650563607085,40533.33333333333
111.11979747305834,86.60643503034805,59.990678805896216,40566.66666666667
111.13549382716049,86.45941358024695,60.127762345679024,40600.0
110.96270061728396,86.52530864197529,59.85300925925926,40633.333333333336
111.26081790123457,86.50896604938272,60.32785493827161,40666.66666666666
111.29743827160496,86.52283950617284,60.32521604938272,40700.0
110.8981790123457,86.61788580246912,59.934074074074076,40733.333333333336
111.26859567901235,86.49731481481481,60.225540123456796,40766.66666666666
110.9560648148148,86.6682561728395,59.956867283950615,40800.0
111.239737654321,86.64851851851853,60.309830246913606,40833.333333333336
110.99770061728395,86.76913580246914,60.0437037037037,40866.66666666666
110.97641975308642,86.77901234567902,60.027114197530864,40900.0
111.31327160493828,86.8716049382716,60.42837962962963,40933.33333333333
111.09625,86.93648148148148,60.14962962962963,40966.66666666667
111.420725308642,86.92003086419754,60.48208333333334,41000.0
111.0394930875576,86.99188940092165,60.14743471582181,41033.33333333333
111.4018827160494,86.97166666666666,60.457762345679036,41066.66666666667
111.42492283950618,86.9772222222222,60.49347222222222,41100.0
111.1362962962963,87.07274691358025,60.15733024691357,41133.333333333336
111.45206790123457,86.91334876543209,60.51021604938271,41166.66666666666
111.054737654321,86.82368827160494,60.1716975308642,41200.0
111.37899691358022,86.61109567901234,60.423209876543204,41233.333333333336
110.95961419753088,86.6254012345679,60.05703703703704,41266.66666666666
110.9229475308642,86.62307098765433,59.99131172839506,41300.0
111.19141975308641,86.4775925925926,60.244830246913565,41333.333333333336
110.9625925925926,86.4995061728395,59.921141975308636,41366.66666666666
111.1833024691358,86.42149691358023,60.19648148148149,41400.0
111.15061005821876,86.60169701474052,59.98163631859284,41433.33333333333
111.46847516412736,86.48440790288616,60.325994054254934,41466.66666666667
111.24966049382715,86.3500925925926,60.24935185185186,41500.0
111.00930555555556,86.43270061728396,59.9263888888889,41533.33333333333
111.17007716049385,86.41313271604939,60.12466049382717,41566.66666666667
110.9721450617284,86.47555555555556,59.938641975308634,41600.0
111.37128086419752,86.44538580246912,60.38975308641975,41633.333333333336
110.8774074074074,86.57422839506172,59.90424382716049,41666.66666666666
110.88032407407408,86.57612654320988,59.91007716049384,41700.0
111.12507716049384,86.48177469135803,60.13577160493828,41733.333333333336
110.97186728395063,86.59677469135801,60.021589506172845,41766.66666666666
111.28944444444444,86.54214506172838,60.2963425925926,41800.0
111.19641860465117,86.71773643410853,60.0853488372093,41833.333333333336
111.5277777777778,86.84358355010531,60.499163879598655,41866.66666666666
111.3264351851852,86.71149691358025,60.407716049382714,41900.0
111.114012345679,86.80561728395064,60.099413580246924,41933.33333333333
111.61540009909577,86.9532237086585,60.5274371361328,41966.66666666667
111.38803728477642,87.08104174408524,60.22050353028614,42000.0
111.40439814814816,86.92194444444445,60.39516975308642,42033.33333333333
111.30961597542245,87.1679569892473,60.350076804915524,42066.66666666667
111.2757603686636,87.18717357910906,60.34857142857143,42100.0
111.85865326819044,87.20029899973801,60.898941171030934,42133.333333333336
111.45659109473976,87.13786353898556,60.440099872077425,42166.66666666666
111.6221045460176,86.82497212931996,60.506255419298896,42200.0
111.16866359447005,86.83450076804917,60.26113671274962,42233.333333333336
111.38872503840246,86.6526420890937,60.446651305683574,42266.66666666666
111.42370199692779,86.64041474654378,60.44812596006147,42300.0
111.09780337941628,86.64976958525345,60.113671274961604,42333.333333333336
111.3179569892473,86.59388632872503,60.3673271889401,42366.66666666666
111.09761904761903,86.60698924731182,60.08983102918586,42400.0
111.27456221198156,86.557311827957,60.34072196620586,42433.33333333333
111.007762345679,86.40452160493825,59.948364197530864,42466.66666666667
111.08485407066051,86.56850998463902,60.095023041474654,42500.0
111.26311728395063,86.30941358024691,60.21282407407408,42533.33333333333
111.29364858169208,86.48731884057972,60.040737643998526,42566.66666666667
111.66048866592344,86.43744580701103,60.549284652545516,42600.0
111.20920042115696,86.56439675461417,60.120339402948105,42633.333333333336
111.53584479127956,86.52365911061564,60.47319769602378,42666.66666666666
111.56503158677073,86.52855196333458,60.506735414344114,42700.0
111.21458875263224,86.6462281679673,60.171853709897185,42733.333333333336
111.26209876543207,86.47638888888889,60.304922839506176,42766.66666666666
111.01885802469135,86.58016975308641,60.0579938271605,42800.0
111.57977207977207,86.68789483463397,60.40130682521987,42833.333333333336
111.08760802469135,86.66229938271607,60.054845679012345,42866.66666666666
111.5558973402933,86.9327305493413,60.239466815809095,42900.0
111.81427106636835,86.95037907034548,60.60899826000497,42933.33333333333
111.59416169525231,87.05126771066368,60.33148458861547,42966.66666666667
111.59003778025516,86.92538399603615,60.50411866716215,43000.0
111.06609567901235,86.9328549382716,60.19189814814815,43033.33333333333
111.48489197530864,86.91248456790123,60.71521604938272,43066.66666666667
111.51851851851852,86.90686728395063,60.73777777777778,43100.0
111.32941595441595,87.16428217515173,60.32398117180726,43133.333333333336
111.3071450617284,86.90489197530864,60.54870370370371,43166.66666666666
111.04649691358028,86.85177469135803,60.09518518518519,43200.0
111.28354938271605,86.65310185185186,60.33219135802468,43233.333333333336
110.89540123456793,86.6275,59.984537037037036,43266.66666666666
110.85753086419751,86.61614197530865,60.00387345679013,43300.0
111.16075617283951,86.47371913580245,60.319012345679006,43333.333333333336
110.92331790123457,86.52458333333334,59.971820987654326,43366.66666666666
111.18662037037035,86.43574074074074,60.29666666666667,43400.0
111.0911216400347,86.58528428093645,59.943267682398115,43433.33333333333
111.23528682170544,86.42522480620156,60.20851162790698,43466.66666666667
111.1195524691358,86.39708333333334,60.244799382716046,43500.0
111.05817054263564,86.47823255813955,59.93914728682171,43533.33333333333
111.3129012345679,86.41168209876543,60.3575462962963,43566.66666666667
110.9180864197531,86.45055555555555,59.855185185185185,43600.0
111.1893209876543,86.42345679012344,60.17637345679013,43633.333333333336
110.92790123456793,86.5605864197531,59.94783950617285,43666.66666666666
110.92375,86.55862654320988,59.943163580246924,43700.0
111.22756172839506,86.52776234567902,60.32320987654321,43733.333333333336
111.24616003963828,86.76828626285149,60.15328874024527,43766.66666666666
111.26351851851852,86.61412037037037,60.382824074074065,43800.0
111.0243827160494,86.73600308641977,60.13035493827161,43833.333333333336
111.30305555555556,86.75737654320987,60.4721913580247,43866.66666666666
111.32828703703704,86.75925925925927,60.50422839506172,43900.0
111.04776234567902,86.90268518518518,60.191435185185185,43933.33333333333
111.28151234567902,86.90518518518519,60.45211419753087,43966.66666666667
111.09087962962965,86.99228395061729,60.18032407407408,44000.0
111.4645061728395,86.90408950617285,60.663580246913575,44033.33333333333
111.05854938271605,86.96412037037037,60.263086419753094,44066.66666666667
111.03998456790123,86.97319444444445,60.263070987654324,44100.0
111.36552469135805,86.79243827160494,60.56552469135804,44133.33333333334
111.13413580246912,86.80404320987655,60.318179012345674,44166.66666666666
111.34944444444444,86.68311728395064,60.50844135802468,44200.0
110.86442396313365,86.60701996927803,60.16116743471582,44233.33333333334
111.3765238968605,86.6605119985204,60.48701508869812,44266.66666666666
111.17984639016899,86.50622119815668,60.419216589861755,44300.0
110.89427035330263,86.55259600614441,60.10743471582181,44333.33333333334
111.16046082949309,86.4899692780338,60.40778801843318,44366.66666666666
110.75301988762493,86.43555276574246,60.02271996570571,44400.0
110.95855596552198,86.38071252507004,60.237197054365645,44433.33333333333
110.98858678955452,86.57282642089096,60.165883256528424,44466.66666666667
110.95777265745008,86.57198156682026,60.13319508448541,44500.0
111.55587750258155,86.69152166206865,60.67675662346068,44533.33333333333
111.23659510195274,86.77493334155326,60.34403464697995,44566.66666666667
111.42910493827159,86.62186728395064,60.601975308641975,44600.0
111.12466049382715,86.7555401234568,60.2771913580247,44633.33333333334
111.29125960061444,86.70880184331797,60.66182795698925,44666.66666666666
111.29786482334869,86.71855606758831,60.65116743471582,44700.0
111.12248456790121,86.83875,60.3233950617284,44733.33333333334
111.3824074074074,86.82753086419754,60.61908950617285,44766.66666666666
111.18452160493828,86.9682561728395,60.334845679012346,44800.0
111.46777777777778,86.95020061728395,60.63966049382717,44833.33333333334
111.16837962962965,87.0495524691358,60.36092592592593,44866.66666666666
111.1441975308642,87.07266975308642,60.34677469135804,44900.0
111.4083487654321,87.1138425925926,60.68577160493828,44933.33333333333
111.20814814814815,87.19739197530865,60.464706790123465,44966.66666666667
111.437311827957,87.17265745007678,61.033824884792644,45000.0
110.8353414884333,87.12747064317102,60.543809421743184,45033.33333333333
111.0835157769034,87.04746084480303,60.809559532740316,45066.66666666667
111.1207955049987,87.02708330143759,60.837637980923795,45100.0
110.95051987203148,87.114556416882,60.51502707025963,45133.33333333334
111.12523071244,86.9827427094869,60.743447766703575,45166.66666666666
110.57530198876249,86.86230231027146,60.278426749544536,45200.0
111.23155864197531,86.85810185185188,60.563487654320994,45233.33333333334
110.982237654321,86.83228395061728,60.27236111111111,45266.66666666666
110.64687600471544,86.67224459176019,60.18688855887441,45300.0
111.24251543209877,86.69128086419754,60.50001543209876,45333.33333333334
110.9588425925926,86.6996450617284,60.204768518518534,45366.66666666666
111.19745370370373,86.6462037037037,60.382824074074065,45400.0
110.95223765432101,86.73404320987656,60.07787037037037,45433.33333333333
111.24109062980033,86.62201228878651,60.64645161290322,45466.66666666667
111.38983024691359,86.63888888888891,60.621882716049384,45500.0
110.71716192937124,86.56173864894795,60.12795311923219,45533.33333333333
111.21623456790121,86.60168209876544,60.50836419753088,45566.66666666667
110.92842592592592,86.72518518518518,60.19702160493828,45600.0
111.43422519509475,86.78304223956398,60.57427536231884,45633.33333333334
111.19919794376317,86.8948036665428,60.27115074941162,45666.66666666666
111.15942028985508,86.9079648210083,60.249612907221604,45700.0
111.4071132168958,86.90867707172055,60.583364300755605,45733.33333333334
111.16722408026756,87.0015638548247,60.31775671993064,45766.66666666666
111.20945987654319,86.86310185185185,60.5412962962963,45800.0
110.98983024691358,86.92881172839506,60.2170524691358,45833.33333333334
111.41669763408896,87.07334633965068,60.62873157438376,45866.66666666666
111.45508175399479,87.08941843180973,60.65869255543169,45900.0
111.40608687546606,87.35099739000746,60.47871613223962,45933.33333333333
111.34349064783848,87.20995912300259,60.58596556422643,45966.66666666667
111.43683196619438,87.4220420084514,60.43445500869997,46000.0
111.46898612659484,87.26975721540941,60.674315619967786,46033.33333333333
111.04845679012344,87.24200617283951,60.29817901234568,46066.66666666667
111.27768487551096,87.37148519757216,60.37739997522606,46100.0
111.27862654320988,87.19560185185185,60.660756172839505,46133.33333333334
111.26757401213922,87.3501796110492,60.41666666666667,46166.66666666666
111.52283847392543,87.20946364424627,60.68705871423265,46200.0
111.02958333333332,87.00648148148147,60.201790123456796,46233.33333333334
111.21427469135807,86.91705246913584,60.45148148148146,46266.66666666666
111.1380030721966,86.88013824884794,60.4910599078341,46300.0
110.9153549382716,86.8841049382716,60.017268518518534,46333.33333333334
111.12381172839508,86.85481481481482,60.2796450617284,46366.66666666666
110.92961419753088,86.82967592592594,60.03296296296296,46400.0
111.33365740740742,86.75637345679013,60.529799382716035,46433.33333333333
110.97657407407408,86.80046296296297,60.221929012345676,46466.66666666667
110.9611728395062,86.79733024691359,60.203858024691364,46500.0
111.10001536098312,86.67791090629801,60.50195084485407,46533.33333333333
110.91503086419752,86.78595679012345,60.16513888888889,46566.66666666667
111.15646697388632,86.7610599078341,60.49370199692781,46600.0
110.86872503840246,86.84715821812595,60.18261136712751,46633.33333333334
111.20775729646698,86.82347158218127,60.505268817204296,46666.66666666666
111.22073732718893,86.84104454685102,60.51539170506914,46700.0
111.06666666666666,86.93578703703704,60.18541666666667,46733.33333333334
111.06194946508579,86.94605138833856,60.605580785760004,46766.66666666666
111.08487767584101,87.18908256880734,60.424036697247715,46800.0
110.86423841059604,86.94818944042774,60.517103104684374,46833.33333333334
110.87189490688532,87.17612545338172,60.346139778719255,46866.66666666666
110.85418635130604,87.18351671797373,60.33504526197081,46900.0
110.96269112216558,86.80790124210334,60.587923825800345,46933.33333333333
110.55703909421064,86.98094119083224,60.21526230658896,46966.66666666667
110.8319803460799,86.8050325022126,60.511078218939794,47000.0
110.74940673943995,86.94336849518501,60.17150205918826,47033.33333333333
110.68848231452377,86.6946317941832,60.31388286996063,47066.66666666667
110.70389416180912,86.68179876094852,60.34133426923429,47100.0
110.2942289498581,86.59704886013367,59.938886684774324,47133.33333333334
110.62312692648092,86.40588091677603,60.24803918576618,47166.66666666666
110.34160893581956,86.38009277626881,59.91854609820857,47200.0
110.54730368968781,86.3060853907895,60.18127994628743,47233.33333333334
110.29160435804316,86.32456434827722,59.827036347544784,47266.66666666666
110.26984466078676,86.3302102725303,59.80883205664235,47300.0
110.60032505012457,86.40306215444437,60.218634181906566,47333.33333333334
110.36607631083298,86.43924296737345,59.978021143447364,47366.66666666666
110.61152989288004,86.1987823114719,60.117877742851036,47400.0
110.36931162282036,86.43122303906678,59.96629503615043,47433.33333333333
110.69121757093384,86.31359742390183,60.373260829941074,47466.66666666667
110.85218359935301,86.32857753227333,60.364284188360244,47500.0
110.41079348684609,86.4511817242846,60.09455313202504,47533.33333333333
110.64157907527796,86.44636672944893,60.29020596634061,47566.66666666667
110.46228393833151,86.45208751167385,59.88845170476293,47600.0
110.94638666219635,86.70933280502302,60.48553750495291,47633.33333333334
110.63069338763262,86.62668218074927,59.97222775081525,47666.66666666666
110.60602905828495,86.64863664895815,59.96757352603456,47700.0
110.82135913481986,86.70423476517408,60.47809708973814,47733.33333333334
110.5279482350082,86.79467160823866,60.1817394738441,47766.66666666666
110.74125098730178,86.7887022297831,60.49175223282095,47800.0
110.54802843429128,86.86631933896349,60.22197581870102,47833.33333333334
110.92920286773196,86.81317212467344,60.675162525062284,47866.66666666666
110.95367276262228,86.79488425785284,60.75042529922839,47900.0
110.46591530469652,86.75961480041315,60.20546509508476,47933.33333333333
110.70993682668535,86.40453810235908,60.296090578936116,47966.66666666667
110.40002136295664,86.39944151127659,59.93565172276986,48000.0
110.68135624256115,86.27620777001252,60.19968260750145,48033.33333333333
110.39252906888028,86.24227118747521,59.86608478041932,48066.66666666667
110.38882106997896,86.22385326700643,59.85552537614063,48100.0
110.90653275563787,86.3219988670637,60.18825114441876,48133.33333333334
110.65348990308802,86.37890595097755,59.976330817398214,48166.66666666666
110.51628112119968,86.11526820884853,60.138568234703655,48200.0
110.2825660446229,86.1887880032243,59.814162522243,48233.33333333334
110.89564195684684,86.36825159459214,60.44764549699394,48266.66666666666
110.91898861659595,86.35853144932402,60.47531052583392,48300.0
110.8184086838036,86.60834086072538,60.13556960668738,48333.33333333334
111.24468361988457,86.60465116279067,60.60223219070073,48366.66666666666
111.15788990825688,86.98284403669727,60.48477064220185,48400.0
111.52440366972479,86.94221712538227,60.865,48433.33333333333
111.19389908256882,87.06931192660551,60.5015749235474,48466.66666666667
111.18581039755352,87.07264525993885,60.503348623853206,48500.0
111.41874180865007,86.94952604468288,60.8839647657655,48533.33333333333
110.79512728598336,86.86083601676893,60.37373169694392,48566.66666666667
111.00364696188238,86.71913815729239,60.5578630939665,48600.0
110.79410960568686,86.96662919982988,60.41580594203779,48633.33333333334
110.69119876303664,86.63600533592043,60.521631700218286,48666.66666666666
110.7106475867087,86.63700582100412,60.52185908319185,48700.0
110.36998560892248,86.82876116807579,60.27918690411946,48733.33333333334
110.98456910813655,86.92637990675289,60.72564295382764,48766.66666666666
110.260853270972,86.68690411944594,60.203588774959535,48800.0
110.5783564190202,86.45609222282185,60.569976614499005,48833.33333333334
109.621792869573,86.08110600449184,59.78195231508337,48866.66666666666
109.60752904079844,86.0662769770797,59.7623042256035,48900.0
110.1720559482629,86.04972176267107,60.11708527598135,48933.33333333333
110.02468614196043,86.16574118783196,59.830124336069524,48966.66666666667
110.45107033639142,86.16135283253095,60.17868713476852,49000.0
110.14886305144276,86.16721167529595,59.82777727314016,49033.33333333333
110.4432131286523,86.13528325309595,60.1269415932419,49066.66666666667
110.4623338480637,86.12327792412269,60.15228449450449,49100.0
110.12754715838557,86.19043509855572,59.74610167438762,49133.33333333334
110.24232560242326,86.1063791310638,60.09028437090284,49166.66666666666
110.1055954219275,86.18469736881944,59.75188482150968,49200.0
110.5886141320858,86.26172610729692,60.15171031046844,49233.33333333334
110.36788383255362,86.36338781213922,59.879731453915795,49266.66666666666
110.25272377697071,86.18643757438886,59.70557267983033,49300.0
110.72991980071691,86.33346497357071,60.34388480466614,49333.33333333334
110.2549974059267,86.27802362132635,59.69327372051149,49366.66666666666
110.66969439212588,86.43337991372502,60.36753447961602,49400.0
110.38961966097577,86.55951151345768,60.02629260586913,49433.33333333333
110.6678413026308,86.56233671547481,60.36584847196063,49466.66666666667
110.67379549182819,86.5839510298317,60.35339328027218,49500.0
110.59024962662683,86.80183791032948,60.1358163918437,49533.33333333333
110.80964064738336,86.69563229601637,60.38420860129842,49566.66666666667
110.39484847560044,86.58696249275185,59.91285439619129,49600.0
110.39022492141486,86.27135532700585,59.9780724509415,49633.33333333334
110.1015198217719,86.20430616168707,59.644642475661485,49666.66666666666
110.0671407208472,86.21166112247076,59.54817346720786,49700.0
110.65523871047128,86.23025101513474,59.87609203888274,49733.33333333334
110.16791724892157,86.25411628896046,59.710037061789905,49766.66666666666
110.52399129261713,86.01752207505518,59.948138950208474,49800.0
110.34020856404577,86.18283191829704,59.56375353759075,49833.33333333334
110.50652969364788,86.07083913835598,59.903700414899646,49866.66666666666
110.52817796285805,86.0653275563789,59.929298651193406,49900.0
110.40528417818744,86.28012288786482,59.667480798771116,49933.33333333333
110.47052069139734,86.14745012783808,59.91801521809023,49966.66666666667
110.27170235019072,86.29838808908579,59.54059000861327,50000.0
110.54462365591398,86.40056835637479,59.88187403993857,50033.33333333333
110.37078341013823,86.44165898617511,59.682672811059895,50066.66666666667
110.38362519201227,86.4478648233487,59.67359447004608,50100.0
110.67565284178188,86.4604608294931,60.04007680491552,50133.33333333334
110.44026113671276,86.52027649769585,59.72571428571428,50166.66666666666
110.76648233486944,86.54843317972349,60.06984639016897,50200.0
110.69342549923195,86.76569892473118,60.014715821812594,50233.33333333334
110.736622931243,86.629637001087,60.23955478665586,50266.66666666666
110.74060351822651,86.63810340340187,60.25771238728049,50300.0
110.31212394935469,86.63449025521686,59.744706584809464,50333.33333333334
110.50564171655157,86.4656368173676,60.028354027282326,50366.66666666666
110.3312261597145,86.52114864033469,59.59597637504614,50400.0
110.94941664226377,86.62036280689856,60.152566928163004,50433.33333333333
110.49856001486437,86.44509476031216,59.52068623807754,50466.66666666667
110.46756162517029,86.45503530286139,59.503654155828066,50500.0
110.7367877564231,86.38524729127815,59.92659094061619,50533.33333333333
110.81640600948215,86.68530262914844,59.82422572501693,50566.66666666667
111.21732036204666,86.7278338772243,60.24450464872852,50600.0
110.88689648781393,86.736169029747,59.80814258795911,50633.33333333334
111.17086769839064,86.71344947950453,60.0663361443178,50666.66666666666
111.2035338090384,86.71749606153277,60.088777685107964,50700.0
110.92124610014521,86.75854879065889,59.83121737250178,50733.33333333334
111.32565718345535,86.76556080684523,60.341318382602786,50766.66666666666
111.18243243243244,86.96812236548477,60.0592920902554,50800.0
111.43793392015871,86.95587961815028,60.41648586660055,50833.33333333334
111.18401314158196,87.08841123233326,60.0849863625093,50866.66666666666
111.18543887924622,87.09343230845526,60.096485246714614,50900.0
111.49979853706918,87.11171894371437,60.44820852963055,50933.33333333333
110.81515916507604,86.9172926543932,59.96748968659565,50966.66666666667
111.35063169925556,87.10255459796745,60.44260649306521,51000.0
110.8594144449233,87.07785850624961,59.97612523859368,51033.33333333333
111.1663690659442,87.06395850009234,60.31700634197402,51066.66666666667
111.6797669228862,87.37293887924622,60.56051636498884,51100.0
111.33086626635014,87.32839919936693,60.13624726527953,51133.33333333334
111.67739585916193,87.48772625836847,60.51986734440864,51166.66666666666
111.0089895942368,87.29365494735546,60.05958684810048,51200.0
111.52316815298336,87.51147681652418,60.7379332536545,51233.33333333334
111.00922049134905,87.39992919155223,60.18484083492395,51266.66666666666
111.08574668260245,87.57270693512304,60.410345990009496,51300.0
111.37478164935185,87.43394318286293,60.640464588887866,51333.33333333334
111.14052588029787,87.44807085286999,60.32666789249487,51366.66666666666
111.37691152584965,87.37703410866968,60.60497686249273,51400.0
110.84888553660488,87.16546087063604,59.87594667816021,51433.33333333333
111.51253785956983,87.33766892671001,60.559891148932245,51466.66666666667
111.53164829420535,87.32358593545807,60.57266731239334,51500.0
111.25560014144487,87.32080316098582,60.17007210614517,51533.33333333333
111.49916209276941,87.25852128591855,60.4965945605215,51566.66666666667
111.00501057276823,87.14892280346909,60.0923814777359,51600.0
111.12377636260901,86.95172645500222,60.38018661901926,51633.33333333334
111.3267991943791,87.30834986086128,60.25137216918039,51666.66666666666
111.32895161662285,87.29402087849577,60.25618437033961,51700.0
111.52949325780432,87.14663505941752,60.58150668062312,51733.33333333334
111.07066899574025,87.12069810916,60.07748766510374,51766.66666666666
111.10760373238035,86.93860814587437,60.365922939478644,51800.0
110.85794352560283,87.04488324857593,60.037949939677155,51833.33333333334
111.12756372077395,86.99836593821108,60.32908782700326,51866.66666666666
111.27788346476021,87.01859409039305,60.34345371421558,51900.0
111.16518379410135,87.23740841081215,59.97663321224062,51933.33333333333
111.26713861052372,87.21016824492047,60.352961907388675,51966.66666666667
111.2979068983482,87.49045386289112,60.298213355398254,52000.0
111.56643988844965,87.46429775366985,60.50559284116331,52033.33333333333
111.0307692307692,87.41564305259958,60.17760717543325,52066.66666666667
110.98967771359078,87.40097294010337,60.14744603222864,52100.0
111.13411523953512,87.25938821948351,60.322383592187045,52133.33333333334
110.92552037995756,87.36007391457062,60.05398512545624,52166.66666666666
111.42671289619837,87.36260010432328,60.485256665950715,52200.0
111.03720352244484,87.44144088858887,60.06348378386671,52233.33333333334
111.27614985732258,87.42392071430763,60.394280629621676,52266.66666666666
111.28533951090792,87.43581049983123,60.39736430302844,52300.0
111.03424258230801,87.50266944862078,60.07316437053174,52333.33333333334
111.23086128072168,87.49596514375133,60.297213954772786,52366.66666666666
110.97714092847721,87.50825381240222,60.04691479242736,52400.0
111.19962566352676,87.39854561075144,60.29073977478445,52433.33333333333
110.89033782332544,87.35934767267038,59.87580927249854,52466.66666666667
111.11260082507229,87.50390985776737,59.91153561972784,52500.0
111.10729956122856,87.21670092970452,60.17483354300267,52533.33333333333
110.81651376146787,87.17107483661135,59.858687981344545,52566.66666666667
110.87101978691021,87.03088280060881,60.164322678843234,52600.0
110.34586386322607,86.86530438871952,59.70507744352918,52633.33333333334
110.9430886850153,86.73397553516821,60.102370030581035,52666.66666666666
110.97362385321102,86.72735474006117,60.15097859327218,52700.0
110.48015290519878,86.72714067278288,59.599816513761475,52733.33333333334
110.85778287461771,86.7070489296636,59.99746177370032,52766.66666666666
110.83633518456017,86.88021232855695,59.752631094473934,52800.0
111.23017090607836,86.94690251910036,60.21627136325979,52833.33333333334
110.6639360427191,86.8484352007767,59.86101124106859,52866.66666666666
110.6693821204812,86.83396289385458,59.88308378464478,52900.0
110.92028095086394,86.83470623037365,60.232103035543616,52933.33333333333
110.84008960955835,86.89376390624523,59.925325368039246,52966.66666666667
110.9562135431817,86.75732198355709,59.99389132997535,53000.0
110.47938474684895,86.66074098941006,59.64177373577075,53033.33333333333
110.95748426902644,86.82774775326484,60.05407474317558,53066.66666666667
110.9794693571352,86.81998560864706,60.08741981413721,53100.0
110.64309444708117,86.87775004975735,59.77671969012661,53133.33333333334
110.9861444953075,86.85331536965873,60.25788079672979,53166.66666666666
110.38198492385632,86.7684102908414,59.623355815301984,53200.0
110.73618274483472,86.81229590746788,60.06958220160527,53233.33333333334
110.67722032548951,87.00670575807217,59.841924766906004,53266.66666666666
110.67870539063335,87.01736148322794,59.83466785063612,53300.0
110.76549304331976,87.00586305364847,60.21608238653624,53333.33333333334
110.75485385107746,87.22650797037399,59.97390959797617,53366.66666666666
111.23160550458715,87.2937767584098,60.38645259938838,53400.0
110.8681498470948,87.22868501529051,60.0254128440367,53433.33333333333
111.09600917431193,87.13603975535169,60.35313455657493,53466.66666666667
111.13114678899085,87.11620795107035,60.38353211009175,53500.0
111.03678899082571,87.14977064220184,60.1134250764526,53533.33333333333
111.19732390502607,86.97192843427109,60.39132555091591,53566.66666666667
111.1123955157087,87.15752666150883,60.24511900969372,53600.0
111.45655872167204,87.09172793000792,60.6541405917735,53633.33333333334
111.0643265082933,87.14162464305244,60.187055714198934,53666.66666666666
111.06418980496993,87.14628774530651,60.18038762986816,53700.0
111.59242795367264,87.31974054250202,60.8750037799752,53733.33333333334
111.23847107562977,87.38914088723577,60.49239468989082,53766.66666666666
111.64229338655537,87.44643019141796,60.92530768998154,53800.0
111.48543953551665,87.51002449423932,60.655508179866345,53833.33333333334
111.83635731349602,87.62675012851915,61.12029393087181,53866.66666666666
111.62517895625179,87.49599891496,61.075666470756644,53900.0
111.86011620321906,87.8940517908342,60.967050471032636,53933.33333333333
111.71410702714107,87.68327380683273,61.176801241768,53966.66666666667
111.90779968910972,87.8779145966046,60.9481239903685,54000.0
112.17492151543784,87.91974763022341,61.20024993142126,54033.33333333333
111.91401749519949,87.906504312841,61.002468834770966,54066.66666666667
111.78579772144602,87.89802636569122,61.037894992339076,54100.0
112.09154565891001,87.81236709399113,61.34181906555684,54133.33333333334
111.62916609778671,87.99966625707306,60.92593941048863,54166.66666666666
111.85117564858132,87.84143933410293,61.21801142232214,54200.0
111.41665654049456,87.78561881037729,60.79752718877211,54233.33333333334
111.69862992891429,87.64771553557324,61.04509690746704,54266.66666666666
111.59617768907437,87.62136744382956,61.08601711572772,54300.0
111.33272069992105,87.58393584057355,60.63485023391458,54333.33333333334
111.58698888146307,87.39949267877758,60.88735646151042,54366.66666666666
111.2956545405062,87.4022044815386,60.67781003356618,54400.0
111.56814539296622,87.23017025008316,60.913680486256006,54433.33333333333
111.36824837474936,87.27573060331734,60.59737833404217,54466.66666666667
111.36038033902423,87.27311805091438,60.56461510419831,54500.0
111.79418757048373,87.3501021061294,60.87058429089578,54533.33333333333
111.24025522392573,87.19608999364964,60.58048323203,54566.66666666667
111.87078402253624,87.24068772295117,61.03362065006047,54600.0
111.18955819649824,87.23177295956938,60.638120293930854,54633.33333333334
111.53022468172607,87.24533551059902,60.939535516647005,54666.66666666666
111.46315085971202,87.10415274318001,60.76789294610853,54700.0
111.22980737246364,87.32436723215096,60.6205056094832,54733.33333333334
111.52242281290634,87.34211799570595,60.94759442378057,54766.66666666666
111.52561476964158,87.54510839060059,60.67575357635887,54800.0
111.61451812876108,87.43226284435573,60.981583960809225,54833.33333333334
111.51641317931058,87.4532597762809,60.60634277180042,54866.66666666666
111.61184180585265,87.60760933873391,60.7823692713785,54900.0
111.77633155842777,87.60369544440907,61.06838695975364,54933.33333333333
111.4842761571019,87.62733051168856,60.8218874679531,54966.66666666667
111.60628181291719,87.40347160840014,60.93314334481393,55000.0
111.40455710796586,87.53156146179403,60.786571398231146,55033.33333333333
111.78684446062591,87.44877804578346,61.19941139883797,55066.66666666667
111.5911578820043,87.3019292993438,61.12741540415495,55100.0
111.33055719898664,87.40743943324385,60.645913924665116,55133.33333333334
111.66196392542363,87.29328418210228,60.95491436459898,55166.66666666666
111.5082800608828,87.4018417047184,60.6767884322679,55200.0
111.81383561643835,87.3356925418569,60.97328767123288,55233.33333333334
111.72307997739807,87.47082359768483,60.7343351506544,55266.66666666666
111.71173317450865,87.47345031383148,60.70104305065592,55300.0
111.7859817351598,87.26091324200912,60.910380517503796,55333.33333333334
111.73709931125059,87.45176463401596,60.72668407629694,55366.66666666666
111.99511308623876,87.43243078144806,61.04616606343826,55400.0
111.70739603854557,87.46019456025411,60.79279485652327,55433.33333333333
111.8869290328492,87.45179517722698,61.0758235213268,55466.66666666667
111.82470620723512,87.28698106839312,60.936301432910916,55500.0
111.49878800895952,87.39707281151237,60.50872940382314,55533.33333333333
112.17937626993412,87.5148082014654,61.066806231143396,55566.66666666667
111.64502470007058,87.44535301156759,60.62693688441594,55600.0
112.0640949282998,87.56729432965288,61.1528993143049,55633.33333333334
111.7732777446893,87.71045035964632,60.941662466975146,55666.66666666666
111.74316213863564,87.72611902689329,60.92823872573724,55700.0
111.83672754946728,87.59619482496193,61.12369863013698,55733.33333333334
111.39563839190468,87.59779328842696,60.72632509372429,55766.66666666666
111.89958715596329,87.66649847094801,61.08533639143732,55800.0
111.4948012232416,87.61256880733946,60.68567278287461,55833.33333333334
111.81100917431192,87.44094801223244,60.91056574923548,55866.66666666666
111.82403669724772,87.43117737003055,60.915229357798175,55900.0
111.52717125382263,87.40929663608563,60.56969418960245,55933.33333333333
111.79255351681955,87.35273700305811,60.83571865443425,55966.66666666667
111.55305810397554,87.28827217125381,60.55717125382263,56000.0
111.92750764525995,87.2480428134557,60.939709480122325,56033.33333333333
111.59032110091744,87.29169724770641,60.54844036697248,56066.66666666667
111.43467275494673,87.28969558599695,60.543972602739714,56100.0
111.74295281582953,87.20185692541857,60.94278538812785,56133.33333333334
111.61920489296637,87.34125382262998,60.6845259938838,56166.66666666666
111.83840978593271,87.29406727828747,60.907660550458715,56200.0
111.57282874617736,87.42347094801224,60.67273700305811,56233.33333333334
111.76021406727828,87.41749235474006,60.99275229357799,56266.66666666666
111.7848623853211,87.41605504587156,61.00813455657492,56300.0
111.53892966360857,87.50391437308869,60.60619266055046,56333.33333333334
111.74866972477064,87.49483180428135,60.8728134556575,56366.66666666666
111.54174311926607,87.59469418960245,60.59752293577982,56400.0
112.05392593047159,87.72909698996655,60.98579362400663,56433.33333333332
111.84785677027399,87.87226534932957,60.80536037556382,56466.66666666668
111.81484152066521,87.88532110091741,60.76455156331502,56500.0
112.20912215028689,87.87915375410391,61.23979012610842,56533.33333333332
111.96851513933134,87.97620078557512,60.77621934246746,56566.66666666668
112.06880076445292,87.82533175099795,61.14630951096589,56600.0
111.78058967680286,87.9702541497773,60.7839187460506,56633.33333333334
111.86792365990613,87.92947439477156,61.05279064772483,56666.66666666666
111.90406860789787,87.92769476235772,61.072566045840865,56700.0
111.62632321806628,88.00503206406677,60.77167009297046,56733.33333333334
112.09503725140075,88.06283480081277,61.11664922110708,56766.66666666666
111.96378313178488,88.0649336591099,60.81345683976124,56800.0
112.19668759471749,87.94470046082952,61.07538737512758,56833.33333333334
111.77746136321657,87.91142786774212,60.76063666030417,56866.66666666666
111.75658826426942,87.89685056338895,60.748137429961204,56900.0
112.16319240404543,87.8377818328024,60.955927380694646,56933.33333333332
111.89722574459532,87.85907586676151,60.655707790801976,56966.66666666668
112.24815204280459,87.81832802400022,61.143382921473425,57000.0
111.8953391272075,87.8503386632852,60.70169795564903,57033.33333333332
112.3041838556739,87.92137183670954,61.25177021119389,57066.66666666668
111.84917431192663,87.64892966360857,61.07100917431193,57100.0
111.93265394488606,87.87828225033249,60.76626047691214,57133.33333333334
112.27093467151035,88.00706545163473,61.210331876116,57166.66666666666
111.94834998298953,87.96495840163301,60.79558036680791,57200.0
112.24959020196087,87.99735564284168,61.18113073330653,57233.33333333334
112.26082638985865,88.23525578364288,60.978308429921334,57266.66666666666
111.89426451573178,88.04759559140446,60.87417646696631,57300.0
112.18408657102394,87.99341173573055,61.242365002155026,57333.33333333334
