Time[ms],HR[bpm]
833,150.0
867,150.0
900,150.0
933,150.0
967,150.0
1000,150.0
1033,150.0
1067,150.0
1100,150.0
1133,150.0
1167,150.0
1200,150.0
1233,150.7389
1267,150.7389
1300,151.5789
1333,151.5789
1367,151.5789
1400,151.5789
1433,151.5789
1467,150.7853
1500,141.3613
1533,141.3613
1567,141.3613
1600,140.625
1633,140.625
1667,141.3613
1700,141.57299999999995
1733,130.7263
1767,129.2308
1800,129.2308
1833,129.8969
1867,129.8969
1900,129.8969
1933,120.6186
1967,120.6186
2000,120.6186
2033,121.875
2067,112.5
2100,110.0
2133,110.0
2167,110.0
2200,110.0
2233,110.0
2267,110.0
2300,110.0
2333,110.0
2367,100.0
2400,100.0
2433,100.0
2467,100.0
2500,96.42857
2533,96.42857
2567,96.42857
2600,82.65306
2633,82.65306
2667,82.65306
2700,78.26087
2733,78.26087
2767,78.26087
2800,78.26087
2833,78.26087
2867,78.26087
2900,78.26087
2933,78.26087
2967,78.26087
3000,78.26087
3033,78.26087
3067,78.26087
3100,78.26087
3133,78.26087
3167,78.26087
3200,78.26087
3233,78.26087
3267,78.26087
3300,67.5
3333,67.5
3367,67.5
3400,67.5
3433,68.10811
3467,67.5
3500,67.5
3533,67.02128
3567,67.02128
3600,67.02128
3633,67.02128
3667,67.02128
3700,67.02128
3733,67.02128
3767,67.02128
3800,67.02128
3833,67.02128
3867,67.02128
3900,67.02128
3933,67.02128
3967,67.02128
4000,67.02128
4033,67.02128
4067,67.02128
4100,65.85365999999999
4133,65.85365999999999
4167,65.85365999999999
4200,65.85365999999999
4233,65.85365999999999
4267,65.85365999999999
4300,65.85365999999999
4333,65.85365999999999
4367,65.85365999999999
4400,65.85365999999999
4433,65.85365999999999
4467,65.625
4500,65.85365999999999
4533,64.94846
4567,64.94846
4600,64.94846
4633,64.94846
4667,64.94846
4700,64.94846
4733,64.94846
4767,64.94846
4800,64.94846
4833,64.94846
4867,64.94846
4900,64.67066
4933,64.67066
4967,64.67066
5000,64.67066
5033,64.67066
5067,64.67066
5100,64.67066
5133,64.67066
5167,64.67066
5200,64.67066
5233,64.67066
5267,64.67066
5300,64.67066
5333,64.67066
5367,64.67066
5400,64.67066
5433,64.94846
5467,64.67066
5500,64.28571
5533,64.28571
5567,64.28571
5600,64.28571
5633,64.28571
5667,64.28571
5700,64.28571
5733,64.28571
5767,64.28571
5800,62.7907
5833,62.7907
5867,62.7907
5900,62.7907
5933,62.7907
5967,62.7907
6000,62.7907
6033,62.7907
6067,62.7907
6100,62.7907
6133,62.7907
6167,62.7907
6200,62.7907
6233,62.7907
6267,62.7907
6300,62.7907
6333,62.7907
6367,63.63636
6400,63.63636
6433,62.7907
6467,62.68657
6500,62.68657
6533,62.68657
6567,62.68657
6600,64.28571
6633,64.28571
6667,64.28571
6700,64.28571
6733,64.28571
6767,64.28571
6800,64.28571
6833,64.28571
6867,70.0
6900,70.0
6933,70.0
6967,70.0
7000,70.0
7033,70.0
7067,70.0
7100,60.0
7133,60.0
7167,60.0
7200,60.0
7233,60.0
7267,60.0
7300,60.0
7333,60.0
7367,60.0
7400,60.0
7433,60.0
7467,60.0
7500,60.0
7533,60.0
7567,60.0
7600,60.0
7633,60.0
7667,60.0
7700,57.69231
7733,57.69231
7767,57.69231
7800,57.69231
7833,57.69231
7867,57.69231
7900,57.69231
7933,57.69231
7967,57.14286
8000,57.69231
8033,56.5445
8067,56.84211
8100,56.84211
8133,56.84211
8167,56.84211
8200,56.84211
8233,56.84211
8267,56.84211
8300,56.84211
8333,56.84211
8367,56.84211
8400,56.84211
8433,56.84211
8467,56.84211
8500,55.55556
8533,55.55556
8567,55.55556
8600,55.55556
8633,55.55556
8667,55.55556
8700,55.55556
8733,55.55556
8767,55.55556
8800,55.55556
8833,55.55556
8867,55.55556
8900,55.55556
8933,56.84211
8967,56.84211
9000,56.84211
9033,56.84211
9067,56.84211
9100,56.84211
9133,56.84211
9167,56.84211
9200,56.84211
9233,56.84211
9267,56.84211
9300,56.84211
9333,56.84211
9367,56.84211
9400,56.84211
9433,55.55556
9467,55.55556
9500,55.55556
9533,55.55556
9567,55.55556
9600,55.55556
9633,55.55556
9667,55.55556
9700,55.55556
9733,55.55556
9767,55.55556
9800,57.44681
9833,57.44681
9867,57.44681
9900,57.44681
9933,57.44681
9967,57.44681
10000,57.44681
10033,57.44681
10067,57.44681
10100,57.44681
10133,57.44681
10167,57.44681
10200,57.44681
10233,57.44681
10267,57.44681
10300,57.44681
10333,57.44681
10367,56.96202
10400,56.96202
10433,56.96202
10467,56.96202
10500,56.96202
10533,56.96202
10567,56.96202
10600,56.96202
10633,56.96202
10667,56.96202
10700,56.96202
10733,56.96202
10767,56.96202
10800,56.96202
10833,56.96202
10867,56.96202
10900,56.96202
10933,56.25
10967,56.25
11000,56.25
11033,56.25
11067,56.25
11100,56.25
11133,56.25
11167,56.25
11200,56.25
11233,56.25
11267,56.25
11300,56.25
11333,56.25
11367,54.54546
11400,54.54546
11433,54.54546
11467,54.54546
11500,54.54546
11533,54.54546
11567,54.54546
11600,54.54546
11633,54.54546
11667,54.54546
11700,54.54546
11733,54.54546
11767,54.54546
11800,54.54546
11833,54.54546
11867,54.54546
11900,54.54546
11933,54.54546
11967,55.10204
12000,55.10204
12033,55.10204
12067,55.10204
12100,55.10204
12133,55.10204
12167,55.10204
12200,55.10204
12233,55.10204
12267,59.60265
12300,59.60265
12333,59.60265
12367,65.45454000000001
12400,65.45454000000001
12433,65.45454000000001
12467,65.45454000000001
12500,65.45454000000001
12533,65.45454000000001
12567,65.45454000000001
12600,65.45454000000001
12633,65.45454000000001
12667,65.45454000000001
12700,65.45454000000001
12733,65.45454000000001
12767,65.45454000000001
12800,65.45454000000001
12833,65.45454000000001
12867,65.45454000000001
12900,65.28497
12933,65.28497
12967,64.94846
13000,64.94846
13033,64.94846
13067,64.94846
13100,64.94846
13133,64.94846
13167,64.94846
13200,64.94846
13233,64.94846
13267,64.94846
13300,60.0
13333,60.0
13367,60.0
13400,60.0
13433,60.0
13467,60.0
13500,60.0
13533,60.0
13567,60.0
13600,60.0
13633,60.0
13667,60.0
13700,60.0
13733,60.0
13767,60.81081
13800,60.81081
13833,60.81081
13867,60.81081
13900,60.81081
13933,60.67416
13967,60.67416
14000,60.67416
14033,60.67416
14067,60.67416
14100,60.67416
14133,60.67416
14167,60.67416
14200,60.67416
14233,60.67416
14267,60.67416
14300,60.33519
14333,60.33519
14367,60.33519
14400,60.33519
14433,60.33519
14467,60.33519
14500,60.33519
14533,60.33519
14567,60.33519
14600,60.33519
14633,60.33519
14667,60.33519
14700,60.33519
14733,60.33519
14767,60.33519
14800,60.33519
14833,59.60265
14867,59.60265
14900,59.60265
14933,59.60265
14967,59.60265
15000,59.60265
15033,59.01639
15067,59.60265
15100,58.37838000000001
15133,58.37838000000001
15167,58.37838000000001
15200,58.37838000000001
15233,58.37838000000001
15267,58.37838000000001
15300,58.37838000000001
15333,58.37838000000001
15367,58.37838000000001
15400,58.37838000000001
15433,58.37838000000001
15467,58.37838000000001
15500,58.37838000000001
15533,58.37838000000001
15567,58.37838000000001
15600,58.37838000000001
15633,58.37838000000001
15667,58.37838000000001
15700,58.37838000000001
15733,58.37838000000001
15767,56.60378000000001
15800,56.60378000000001
15833,56.60378000000001
15867,56.60378000000001
15900,56.60378000000001
15933,56.60378000000001
15967,56.96202
16000,56.96202
16033,57.75401
16067,57.75401
16100,57.75401
16133,57.75401
16167,57.75401
16200,57.75401
16233,57.75401
16267,57.75401
16300,57.75401
16333,57.75401
16367,57.75401
16400,57.75401
16433,57.75401
16467,57.75401
16500,57.75401
16533,57.75401
16567,57.75401
16600,57.75401
16633,58.82353000000001
16667,58.82353000000001
16700,58.82353000000001
16733,58.82353000000001
16767,58.82353000000001
16800,58.82353000000001
16833,58.82353000000001
16867,58.82353000000001
16900,58.82353000000001
16933,58.82353000000001
16967,58.82353000000001
17000,58.82353000000001
17033,59.01639
17067,58.82353000000001
17100,58.37838000000001
17133,58.37838000000001
17167,58.37838000000001
17200,58.37838000000001
17233,58.37838000000001
17267,58.37838000000001
17300,58.37838000000001
17333,58.37838000000001
17367,58.37838000000001
17400,58.37838000000001
17433,58.37838000000001
17467,58.37838000000001
17500,58.37838000000001
17533,58.37838000000001
17567,58.37838000000001
17600,58.37838000000001
17633,58.37838000000001
17667,58.37838000000001
17700,58.37838000000001
17733,58.37838000000001
17767,58.44156
17800,58.44156
17833,58.44156
17867,58.44156
17900,58.44156
17933,58.44156
17967,58.44156
18000,58.44156
18033,58.44156
18067,58.44156
18100,58.44156
18133,58.37838000000001
18167,58.06452
18200,58.06452
18233,58.06452
18267,58.06452
18300,58.06452
18333,58.06452
18367,58.06452
18400,58.06452
18433,58.06452
18467,58.06452
18500,58.06452
18533,58.06452
18567,58.06452
18600,58.06452
18633,58.06452
18667,58.06452
18700,58.06452
18733,58.06452
18767,58.06452
18800,57.32484
18833,57.32484
18867,57.32484
18900,57.32484
18933,57.32484
18967,57.32484
19000,57.32484
19033,57.32484
19067,57.32484
19100,58.37838000000001
19133,58.37838000000001
19167,58.37838000000001
19200,58.37838000000001
19233,58.37838000000001
19267,58.37838000000001
19300,58.37838000000001
19333,58.37838000000001
19367,58.37838000000001
19400,58.37838000000001
19433,58.37838000000001
19467,58.37838000000001
19500,58.37838000000001
19533,58.37838000000001
19567,58.37838000000001
19600,58.37838000000001
19633,58.37838000000001
19667,58.37838000000001
19700,58.37838000000001
19733,58.37838000000001
19767,58.06452
19800,58.06452
19833,58.06452
19867,58.06452
19900,58.06452
19933,58.06452
19967,58.06452
20000,58.06452
20033,58.06452
20067,58.69565
20100,58.69565
20133,58.69565
20167,58.69565
20200,58.69565
20233,58.69565
20267,58.69565
20300,58.69565
20333,58.69565
20367,58.69565
20400,58.69565
20433,58.69565
20467,58.69565
20500,58.69565
20533,58.69565
20567,58.69565
20600,58.69565
20633,58.69565
20667,58.69565
20700,58.69565
20733,58.69565
20767,59.60265
20800,59.60265
20867,59.60265
20900,59.60265
20933,59.60265
20967,59.60265
21000,59.60265
21033,59.60265
21067,59.60265
21100,59.60265
21133,59.60265
21167,59.60265
21200,59.60265
21233,59.60265
21267,57.75401
21300,57.75401
21333,57.75401
21367,57.75401
21400,57.75401
21433,57.75401
21467,57.44681
21500,57.44681
21533,57.44681
21567,57.44681
21600,57.44681
21633,57.44681
21667,57.44681
21700,57.44681
21733,57.44681
21767,57.44681
21800,57.44681
21833,57.44681
21867,56.96202
21900,56.96202
21933,56.96202
21967,56.96202
22000,56.96202
22033,56.96202
22067,56.96202
22100,56.96202
22133,56.96202
22167,56.96202
22200,56.96202
22233,58.06452
22267,58.06452
22300,58.06452
22333,58.06452
22367,58.06452
22400,58.06452
22433,58.06452
22467,58.06452
22500,58.06452
22533,58.06452
22567,58.06452
22600,58.06452
22633,58.06452
22667,58.06452
22700,58.06452
22733,58.06452
22767,58.06452
22800,58.06452
22833,58.06452
22867,58.44156
22900,58.44156
22933,58.44156
22967,58.44156
23000,58.44156
23033,58.44156
23067,58.44156
23100,58.44156
23133,58.44156
23167,59.34066
23200,59.34066
23233,59.34066
23267,59.34066
23300,59.34066
23333,59.34066
23367,59.34066
23400,59.34066
23433,59.34066
23467,59.34066
23500,59.34066
23533,59.34066
23567,59.34066
23600,59.34066
23633,59.34066
23667,59.34066
23700,59.34066
23733,59.34066
23767,59.34066
23800,59.34066
23833,59.34066
23867,59.34066
23900,59.34066
23933,60.0
23967,60.0
24000,60.0
24033,60.0
24067,60.0
24100,60.0
24133,60.0
24167,60.0
24200,60.0
24233,60.0
24267,60.0
24300,60.0
24333,60.0
24367,60.0
24400,60.0
24433,60.0
24467,60.0
24500,60.0
24533,60.0
24567,60.0
24600,60.0
24633,60.0
24667,60.0
24700,60.0
24733,60.0
24767,60.0
24800,60.0
24833,60.0
24867,60.0
24900,60.0
24933,60.0
24967,60.0
25000,59.21053000000001
25033,59.21053000000001
25067,59.21053000000001
25100,59.21053000000001
25133,59.21053000000001
25167,59.34066
25200,59.34066
25233,59.34066
25267,59.34066
25300,59.34066
25333,59.34066
25367,59.34066
25400,59.34066
25433,59.34066
25467,59.34066
25500,59.34066
25533,59.34066
25567,59.34066
25600,59.34066
25633,59.34066
25667,59.34066
25700,59.34066
25733,59.34066
25767,59.34066
25800,59.34066
25833,59.34066
25867,59.34066
25900,59.34066
25933,58.82353000000001
25967,58.82353000000001
26000,58.82353000000001
26033,58.82353000000001
26067,58.82353000000001
26100,58.82353000000001
26133,58.82353000000001
26167,59.01639
26200,59.01639
26233,59.01639
26267,59.01639
26300,59.01639
26333,59.01639
26367,59.01639
26400,59.01639
26433,59.01639
26467,59.01639
26500,59.01639
26533,59.01639
26567,59.01639
26600,59.01639
26633,59.01639
26667,59.01639
26700,59.01639
26733,59.01639
26767,59.01639
26800,59.01639
26833,59.01639
26867,59.01639
26900,61.22449
26933,61.22449
26967,61.22449
27000,61.22449
27033,61.22449
27067,61.22449
27100,61.22449
27133,61.22449
27167,61.01695
27200,61.01695
27233,61.01695
27267,61.01695
27300,61.01695
27333,61.01695
27367,61.01695
27400,61.01695
27433,61.01695
27467,61.01695
27500,61.01695
27533,61.01695
27567,61.01695
27600,61.01695
27633,61.01695
27667,61.01695
27700,61.01695
27733,61.01695
27767,61.01695
27800,61.01695
27833,61.01695
27867,61.01695
27900,61.01695
27933,61.01695
27967,61.01695
28000,61.01695
28033,61.01695
28067,61.01695
28100,60.81081
28133,61.01695
28167,61.01695
28200,61.01695
28233,61.36364
28267,61.01695
28300,61.01695
28333,61.01695
28367,61.01695
28400,61.01695
28433,61.01695
28467,61.01695
28500,61.01695
28533,61.01695
28567,61.01695
28600,61.01695
28633,61.01695
28667,61.01695
28700,61.01695
28733,61.01695
28767,61.01695
28800,61.01695
28833,61.01695
28867,61.01695
28900,61.01695
28933,61.01695
28967,61.01695
29000,61.01695
29033,61.01695
29067,60.40268
29100,60.40268
29133,60.40268
29167,60.0
29200,60.40268
29233,59.34066
29267,59.34066
29300,59.34066
29367,59.34066
29400,59.34066
29433,59.34066
29467,59.34066
29500,59.34066
29533,59.34066
29567,59.34066
29600,59.34066
29633,59.34066
29667,59.34066
29700,59.34066
29733,59.34066
29767,59.34066
29800,59.34066
29833,59.34066
29867,59.34066
29900,59.34066
29933,59.34066
29967,59.34066
30000,59.21053000000001
30033,59.21053000000001
30067,59.21053000000001
30100,59.21053000000001
30133,59.21053000000001
30167,59.21053000000001
30200,59.66851
30233,59.66851
30267,59.66851
30300,59.66851
30333,59.66851
30367,59.66851
30400,59.66851
30433,59.34066
30467,59.34066
30500,59.34066
30533,59.34066
30567,59.34066
30600,59.34066
30633,59.34066
30667,59.34066
30700,59.34066
30733,59.34066
30767,59.34066
30800,59.34066
30833,59.34066
30867,59.34066
30900,59.34066
30933,59.34066
30967,59.34066
31000,59.21053000000001
31033,59.21053000000001
31067,59.21053000000001
31100,59.21053000000001
31133,59.21053000000001
31167,59.21053000000001
31200,59.21053000000001
31233,59.34066
31267,59.34066
31300,59.34066
31333,59.34066
31367,59.34066
31533,59.34066
31567,59.34066
31600,59.34066
31633,59.34066
31667,59.34066
31700,59.34066
31733,59.34066
31767,59.34066
31800,59.34066
31833,59.34066
31867,59.34066
31900,59.34066
31933,59.34066
31967,59.34066
32000,59.21053000000001
32033,59.21053000000001
32067,59.21053000000001
32100,59.21053000000001
32133,59.21053000000001
32167,59.21053000000001
32200,59.66851
32233,59.66851
32267,59.66851
32300,59.66851
32333,59.66851
32367,59.66851
32400,59.66851
32433,59.66851
32467,59.66851
32500,59.66851
32533,59.66851
32567,59.66851
32600,59.66851
32633,59.66851
32667,59.66851
32700,59.66851
32733,59.66851
32767,59.66851
32800,59.66851
32833,59.66851
32867,59.66851
32900,59.66851
32933,59.66851
32967,59.66851
33000,59.21053000000001
33033,59.21053000000001
33067,59.21053000000001
33100,59.21053000000001
33133,59.21053000000001
33167,59.66851
33200,59.21053000000001
33233,59.01639
33267,59.01639
33300,59.01639
33333,59.01639
33367,59.01639
33400,59.01639
33433,59.01639
33467,59.01639
33500,59.01639
33533,59.01639
33567,59.01639
33600,59.01639
33633,59.01639
33667,59.01639
33700,59.01639
33733,59.01639
33767,59.01639
33800,59.01639
33833,59.01639
33867,59.01639
33900,59.01639
33933,59.01639
33967,58.82353000000001
34000,58.82353000000001
34033,58.82353000000001
34067,58.82353000000001
34100,58.82353000000001
34133,58.82353000000001
34167,58.82353000000001
34200,59.34066
34233,59.34066
34267,59.34066
34300,59.34066
34333,59.34066
34367,59.34066
34400,59.34066
34433,59.34066
34467,59.34066
34500,59.34066
34533,59.34066
34567,59.34066
34600,59.34066
34633,59.34066
34667,59.34066
34700,59.34066
34733,59.34066
34767,59.34066
34800,59.34066
34833,59.34066
34867,59.34066
34900,59.34066
34933,59.34066
34967,60.0
35000,60.0
35033,60.0
35067,60.0
35100,60.0
35133,60.0
35167,60.33519
35200,60.33519
35233,60.33519
35267,60.33519
35300,60.33519
35333,60.33519
35367,60.33519
35400,60.33519
35433,60.33519
35467,60.33519
35500,60.33519
35533,60.33519
35567,60.33519
35600,60.33519
35633,60.33519
35667,60.33519
35700,60.33519
35733,60.33519
35767,60.33519
35800,60.33519
35833,60.33519
35867,60.33519
35900,60.33519
35933,60.33519
35967,60.33519
36000,60.33519
36033,60.40268
36067,60.40268
36100,60.40268
36133,60.40268
36167,60.40268
36200,60.40268
36233,59.66851
36267,59.66851
36300,59.66851
36333,59.66851
36367,59.66851
36400,59.66851
36433,59.66851
36467,59.66851
36500,59.66851
36533,59.66851
36567,59.66851
36600,59.66851
36633,59.66851
36667,59.66851
36700,59.66851
36733,59.66851
36767,59.66851
36800,59.66851
36833,59.66851
36867,59.66851
36900,59.66851
36933,59.66851
36967,59.66851
37000,59.66851
37033,60.0
37067,60.0
37100,60.0
37133,60.0
37167,60.0
37200,60.33519
37233,60.33519
37267,60.33519
37300,60.33519
37333,60.33519
37367,60.33519
37400,60.33519
37433,60.33519
37467,60.33519
37500,60.33519
37533,60.33519
37567,60.33519
37600,60.33519
37633,60.33519
37667,60.33519
37700,60.33519
37733,60.33519
37767,60.33519
37800,60.33519
37833,60.33519
37867,60.33519
37900,60.33519
37933,60.33519
37967,60.33519
38000,60.33519
38033,60.33519
38067,60.0
38100,60.0
38133,60.0
38167,60.0
38200,60.0
38233,60.0
38267,60.0
38300,60.0
38333,60.0
38367,60.0
38400,60.0
38433,60.0
38467,60.0
38500,60.0
38533,60.0
38567,60.0
38600,60.0
38633,60.0
38667,60.0
38700,60.0
38733,60.0
38767,60.0
38800,60.0
38833,60.0
38867,60.0
38900,60.0
38933,60.0
38967,60.0
39000,60.0
39033,60.40268
39067,60.40268
39100,60.40268
39133,60.40268
39167,60.40268
39200,60.40268
39233,60.0
39267,60.0
39300,60.0
39333,60.0
39367,60.0
39400,60.0
39433,60.0
39467,60.0
39500,60.0
39533,60.0
39567,60.0
39600,60.0
39633,60.0
39667,60.0
39700,60.0
39733,60.33519
39767,60.33519
39800,60.33519
39833,60.33519
39867,60.33519
40033,60.33519
40067,60.0
40100,60.0
40133,60.67416
40167,60.67416
40200,60.67416
40233,60.67416
40267,60.67416
40300,60.67416
40333,60.67416
40367,60.67416
40400,60.67416
40433,60.67416
40467,60.67416
40500,60.67416
40533,60.67416
40567,60.67416
40600,60.67416
40633,60.67416
40667,60.67416
40700,60.67416
40733,60.67416
40767,60.67416
40800,60.67416
40833,60.67416
40867,60.67416
40900,60.67416
40933,62.37624
40967,62.37624
41000,62.37624
41033,62.42775
41067,62.42775
41100,62.42775
41133,62.42775
41233,62.42775
41267,62.42775
41300,62.42775
41333,62.42775
41367,62.42775
41400,62.42775
41433,62.42775
41467,62.42775
41500,62.42775
41533,62.42775
41567,62.42775
41600,62.42775
41633,62.42775
41667,62.42775
41700,62.42775
41800,62.42775
41833,63.0
41867,62.42775
41900,62.37624
41933,62.37624
41967,62.37624
42000,63.52941
42033,63.52941
42067,63.52941
42100,63.52941
42133,63.52941
42167,63.52941
42200,63.52941
42233,63.52941
42267,63.52941
42300,63.52941
42333,63.52941
42367,63.52941
42400,63.52941
42433,63.52941
42467,63.52941
42500,63.52941
42533,63.52941
42567,63.52941
42600,63.52941
42633,63.52941
42667,63.52941
42700,63.52941
42733,63.52941
42767,64.28571
42800,64.28571
42833,64.28571
42867,64.28571
42900,64.28571
42933,64.28571
42967,64.28571
43000,64.28571
43033,64.28571
43067,64.67066
43100,64.67066
43133,64.67066
43167,64.67066
43200,64.67066
43233,64.67066
43267,64.67066
43300,64.67066
43333,64.67066
43367,64.67066
43400,64.67066
43433,64.67066
43467,64.67066
43500,64.67066
43533,64.67066
43567,65.96859
43600,65.625
43633,65.625
43667,65.625
43700,65.625
43733,65.625
43767,65.625
43800,65.625
43833,65.625
43867,65.96859
43900,65.96859
43933,65.96859
43967,65.96859
44000,65.96859
44033,67.08074
44067,67.08074
44100,67.08074
44133,67.08074
44167,67.08074
44200,67.08074
44233,67.08074
44267,67.08074
44300,67.08074
44333,68.47825999999999
44367,68.47825999999999
44400,68.47825999999999
44433,68.47825999999999
44467,68.47825999999999
44500,68.47825999999999
44533,68.47825999999999
44567,68.47825999999999
44600,68.47825999999999
44633,68.47825999999999
44667,68.47825999999999
44700,68.47825999999999
44733,68.47825999999999
44767,68.47825999999999
44800,68.47825999999999
44833,68.47825999999999
44867,68.47825999999999
44900,68.47825999999999
44933,68.47825999999999
44967,68.47825999999999
45000,68.47825999999999
45033,70.58823000000002
45067,70.58823000000002
45100,70.58823000000002
45133,70.58823000000002
45167,70.58823000000002
45200,70.58823000000002
45233,70.58823000000002
45267,70.58823000000002
45300,70.58823000000002
45333,70.58823000000002
45367,70.58823000000002
45400,68.10811
45433,68.10811
45467,68.10811
45500,68.10811
45533,68.10811
45567,68.10811
45600,68.10811
45633,68.10811
45667,68.10811
45700,68.10811
45733,68.10811
45767,68.10811
45800,68.10811
45833,68.10811
45867,68.10811
45900,68.10811
45933,68.10811
45967,68.10811
46000,68.10811
46033,68.10811
46067,68.35443000000001
46100,68.35443000000001
46133,68.35443000000001
46167,68.35443000000001
46200,68.35443000000001
46233,68.35443000000001
46267,68.35443000000001
46300,68.35443000000001
46333,68.35443000000001
46367,68.35443000000001
46400,68.35443000000001
46433,68.35443000000001
46467,68.35443000000001
46500,68.35443000000001
46533,65.96859
46567,65.96859
46600,65.96859
46633,65.96859
46667,65.96859
46700,65.96859
46733,65.96859
46767,65.96859
46800,65.96859
46833,65.96859
46867,65.96859
46900,65.96859
46933,65.96859
46967,64.67066
47000,64.67066
47033,64.67066
47067,64.67066
47100,64.67066
47133,64.67066
47167,64.67066
47200,64.67066
47233,64.67066
47267,64.67066
47300,64.67066
47333,64.67066
47367,65.28497
47400,65.28497
47433,65.28497
47467,65.28497
47500,65.28497
47533,65.28497
47567,65.28497
47600,65.28497
47633,65.28497
47667,65.28497
47700,65.28497
47733,65.28497
47767,65.85365999999999
47800,65.85365999999999
47833,65.85365999999999
47867,65.85365999999999
47900,65.85365999999999
47933,65.85365999999999
47967,65.85365999999999
48000,65.85365999999999
48033,65.85365999999999
48067,65.85365999999999
48100,65.85365999999999
48133,65.85365999999999
48167,65.85365999999999
48200,65.85365999999999
48233,65.85365999999999
48267,65.85365999999999
48300,65.85365999999999
48333,65.85365999999999
48367,66.66666
48400,66.66666
48433,66.66666
48467,66.66666
48500,66.66666
48533,66.66666
48567,66.66666
48600,66.66666
48633,66.66666
48667,66.66666
48700,66.66666
48733,67.08074
48767,67.08074
48800,67.08074
48833,67.08074
48867,69.61326
48900,69.61326
48933,69.61326
48967,69.61326
49000,69.61326
49033,69.61326
49067,69.61326
49100,69.61326
49133,69.61326
49167,69.61326
49200,69.61326
49233,69.61326
49267,69.61326
49300,69.61326
49333,69.61326
49367,69.61326
49400,69.61326
49433,69.61326
49467,69.61326
49500,69.61326
49533,69.61326
49567,69.61326
49600,69.61326
49633,69.61326
49733,67.92453
49767,67.92453
49800,67.92453
49833,67.02128
49867,67.92453
49900,66.31579
49933,66.31579
49967,66.31579
50000,66.31579
50033,66.31579
50067,66.31579
50100,66.31579
50133,67.02128
50167,67.02128
50200,67.02128
50300,67.02128
50333,67.02128
50367,67.02128
50400,65.45454000000001
50433,65.45454000000001
50467,65.45454000000001
50500,65.45454000000001
50533,65.45454000000001
50567,65.45454000000001
50600,65.45454000000001
50633,65.45454000000001
50667,65.45454000000001
50700,65.45454000000001
50733,65.45454000000001
50767,65.45454000000001
50800,65.45454000000001
50833,64.61539
50867,64.61539
50900,64.61539
50933,64.61539
50967,64.61539
51000,64.61539
51033,64.61539
51067,64.61539
51100,64.61539
51133,64.61539
51167,66.25766999999999
51200,66.25766999999999
51233,66.25766999999999
51267,66.25766999999999
51300,66.25766999999999
51333,66.25766999999999
51367,66.25766999999999
51400,66.25766999999999
51433,66.25766999999999
51467,66.25766999999999
51500,66.25766999999999
51533,66.25766999999999
51567,66.25766999999999
51600,66.25766999999999
51633,66.25766999999999
51667,66.25766999999999
51700,66.66666
51733,66.66666
51767,66.66666
51800,66.66666
51833,66.66666
51867,66.66666
51900,66.66666
51933,66.66666
51967,66.66666
52000,66.66666
52033,66.66666
52067,66.66666
52100,66.66666
52133,66.66666
52167,66.66666
52200,66.66666
52233,69.23076999999999
52267,69.23076999999999
52300,69.23076999999999
52333,69.23076999999999
52367,69.23076999999999
52400,69.23076999999999
52433,69.23076999999999
52467,69.23076999999999
52500,69.23076999999999
52533,69.23076999999999
52567,69.23076999999999
52600,69.23076999999999
52633,69.23076999999999
52667,69.23076999999999
52700,67.74194
52733,67.74194
52767,67.74194
52800,67.74194
52833,67.74194
52867,67.74194
52900,67.74194
52933,67.74194
52967,67.74194
53000,67.74194
53033,67.74194
53067,67.74194
53100,67.74194
53133,67.74194
53167,67.74194
53200,67.74194
53233,67.74194
53267,67.74194
53300,67.74194
53333,67.5
53367,67.5
53400,67.5
53433,67.5
53467,67.5
53500,67.5
53533,67.5
53567,67.5
53600,67.5
53633,67.5
53667,66.66666
53700,66.66666
53733,66.66666
53767,66.66666
53800,66.66666
53833,66.66666
53867,66.66666
53900,66.66666
53933,66.66666
53967,66.66666
54000,66.66666
54033,66.66666
54067,66.66666
54100,66.66666
54133,66.66666
54167,66.66666
54200,65.85365999999999
54233,65.85365999999999
54267,65.85365999999999
54300,65.85365999999999
54333,65.85365999999999
54367,65.85365999999999
54400,65.85365999999999
54433,65.85365999999999
54467,65.85365999999999
54500,65.85365999999999
54533,65.85365999999999
54567,65.85365999999999
54600,65.625
54633,65.625
54667,65.625
54700,65.625
54733,65.625
54767,65.625
54800,65.625
54833,65.625
54867,65.625
54900,65.625
54933,65.625
54967,65.625
55000,65.625
55033,62.7907
55067,62.7907
55100,62.7907
55133,62.7907
55167,62.7907
55200,62.7907
55233,62.7907
55267,62.7907
55300,62.7907
55333,62.7907
55367,62.7907
55400,62.7907
55433,62.7907
55467,62.7907
55500,62.7907
55533,62.7907
55567,62.7907
55600,62.7907
55633,62.7907
55667,62.7907
55700,62.93706
55733,62.93706
55767,62.93706
55800,62.93706
55833,62.93706
55867,62.93706
55900,62.93706
55933,62.93706
55967,62.93706
56000,62.93706
56033,62.93706
56067,62.93706
56100,62.93706
56133,62.93706
56167,61.71429000000001
56200,61.71429000000001
56233,61.71429000000001
56267,61.71429000000001
56300,61.71429000000001
56333,61.71429000000001
56367,61.71429000000001
56400,61.71429000000001
56433,61.71429000000001
56467,61.71429000000001
56500,61.71429000000001
56533,61.71429000000001
56567,61.71429000000001
56600,61.71429000000001
56633,61.71429000000001
56667,61.64384
56700,61.64384
56733,61.64384
56767,61.64384
56800,61.64384
56833,61.64384
56867,59.34066
56900,59.34066
56933,59.34066
56967,59.34066
57000,59.34066
57033,59.34066
57067,59.34066
57100,59.34066
57133,59.34066
57167,59.34066
57200,59.34066
57233,59.34066
57267,59.34066
57300,59.34066
57333,59.34066
57367,59.34066
57400,59.34066
57433,59.34066
57467,59.34066
57500,59.34066
57533,59.34066
57567,59.34066
57600,59.34066
57633,57.69231
57667,57.69231
57700,57.69231
57733,57.69231
57767,57.69231
57800,57.69231
57833,57.69231
57867,57.69231
57900,57.75401
57933,57.75401
57967,57.75401
58000,57.75401
58033,57.75401
58067,57.75401
58100,57.75401
58133,57.75401
58167,57.75401
58200,57.75401
58233,57.75401
58267,57.75401
58300,57.75401
58333,57.75401
58367,57.75401
58400,57.75401
58433,57.75401
58467,57.75401
58500,57.69231
58533,57.69231
58567,57.69231
58600,57.69231
58633,57.69231
58667,57.69231
58700,57.69231
58733,57.69231
58767,57.69231
58800,57.69231
58833,57.69231
58867,57.69231
58900,57.69231
58933,57.75401
58967,57.75401
59000,57.75401
59033,57.75401
59067,57.75401
59100,57.75401
59133,57.75401
59167,57.75401
59200,57.75401
59233,57.75401
59267,57.75401
59300,57.75401
59333,57.75401
59367,57.75401
59400,57.75401
59433,57.75401
59467,57.75401
59500,57.75401
59533,56.96202
59567,56.96202
59600,56.96202
59633,56.96202
59667,56.96202
59700,56.96202
59733,56.96202
59767,56.96202
59800,56.96202
59833,56.96202
59867,56.96202
59900,57.75401
59933,57.75401
59967,57.75401
60000,57.75401
60033,57.75401
60067,57.75401
60100,57.75401
60133,57.75401
60167,57.75401
60200,57.75401
60233,57.75401
60267,57.75401
60300,57.75401
60333,57.75401
60367,57.75401
60400,57.75401
60433,57.75401
60467,57.75401
60500,56.60378000000001
60533,56.60378000000001
60567,56.60378000000001
60600,56.60378000000001
60633,56.60378000000001
60667,56.60378000000001
60700,56.60378000000001
60733,56.60378000000001
60767,56.60378000000001
60800,56.60378000000001
60833,56.60378000000001
60867,56.60378000000001
60900,56.60378000000001
60933,56.60378000000001
60967,56.60378000000001
61000,56.25
61033,56.25
61067,56.25
61100,56.25
61133,56.25
61167,56.25
61200,56.25
61233,56.25
61267,56.25
61300,56.25
61333,56.25
61367,56.25
61400,56.25
61433,56.60378000000001
61467,56.60378000000001
61500,56.60378000000001
61533,56.60378000000001
61567,56.60378000000001
61600,56.60378000000001
61633,56.60378000000001
61667,56.60378000000001
61700,56.60378000000001
61733,56.60378000000001
61767,56.60378000000001
61800,56.60378000000001
61833,56.60378000000001
61867,56.60378000000001
61900,56.60378000000001
61933,56.60378000000001
61967,56.60378000000001
62000,56.60378000000001
62033,56.60378000000001
62067,56.60378000000001
62100,56.60378000000001
62133,55.95855
62167,55.95855
62200,55.95855
62233,55.95855
62267,55.95855
62300,55.95855
62333,55.6701
62367,55.6701
62400,55.6701
62433,55.6701
62467,55.6701
62500,55.6701
62533,56.60378000000001
62567,56.60378000000001
62600,56.60378000000001
62633,56.60378000000001
62667,56.60378000000001
62700,56.60378000000001
62733,56.60378000000001
62767,56.60378000000001
62800,56.60378000000001
62833,56.60378000000001
62867,56.60378000000001
62900,56.60378000000001
62933,56.60378000000001
62967,56.60378000000001
63000,56.60378000000001
63033,56.60378000000001
63067,56.60378000000001
63100,56.60378000000001
63133,56.60378000000001
63167,56.60378000000001
63200,56.60378000000001
63233,56.60378000000001
63267,56.25
63300,56.60378000000001
63333,55.6701
63367,55.6701
63400,55.6701
63433,55.6701
63467,55.6701
63500,55.6701
63533,55.6701
63567,55.6701
63600,55.6701
63633,55.6701
63667,55.6701
63700,55.21473
63733,55.21473
63767,55.21473
63800,55.21473
63833,55.21473
63867,55.21473
63900,55.21473
63933,55.21473
63967,55.21473
64000,55.21473
64033,55.21473
64067,55.21473
64100,55.21473
64133,55.21473
64167,55.21473
64200,55.21473
64233,55.21473
64267,55.21473
64300,55.21473
64333,55.21473
64367,55.6701
64400,55.6701
64433,55.10204
64467,55.10204
64500,55.10204
64533,55.10204
64567,55.10204
64600,55.10204
64633,55.10204
64667,55.10204
64700,55.10204
64733,54.54546
64767,54.54546
64800,54.54546
64833,54.54546
64867,54.54546
64900,54.54546
64933,54.54546
64967,54.54546
65000,54.54546
65033,54.54546
65067,54.54546
65100,54.54546
65133,54.54546
65167,54.54546
65200,54.54546
65233,54.54546
65267,54.54546
65300,54.54546
65333,54.54546
65367,54.54546
65400,54.87805
65433,54.87805
65467,54.87805
65500,54.87805
65533,54.87805
65567,54.87805
65600,54.0
65633,54.0
65667,54.0
65700,54.0
65733,54.0
65767,52.63158000000001
65800,52.63158000000001
65833,52.63158000000001
65867,52.63158000000001
65900,52.63158000000001
65933,52.63158000000001
65967,52.63158000000001
66000,52.63158000000001
66033,52.63158000000001
66067,52.63158000000001
66100,52.63158000000001
66133,52.63158000000001
66167,52.63158000000001
66200,52.63158000000001
66233,52.63158000000001
66267,52.63158000000001
66300,52.63158000000001
66333,52.63158000000001
66367,52.63158000000001
66400,52.63158000000001
66433,52.63158000000001
66467,52.63158000000001
66500,52.63158000000001
66533,52.63158000000001
66567,52.63158000000001
66600,52.63158000000001
66633,53.46535
66667,53.20197
66700,53.20197
66733,52.94118
66767,52.94118
66800,52.94118
66833,52.94118
66867,52.94118
66900,52.94118
66933,52.94118
66967,52.94118
67000,52.94118
67033,52.94118
67067,52.94118
67100,52.94118
67133,52.94118
67167,52.94118
67200,52.94118
67233,52.94118
67267,52.94118
67300,52.94118
67333,52.94118
67367,52.94118
67400,52.94118
67433,52.94118
67467,52.94118
67500,52.94118
67533,52.94118
67567,52.94118
67600,52.94118
67633,52.94118
67667,52.94118
67700,52.94118
67733,53.46535
67767,53.46535
67800,53.46535
67833,53.89222
67867,53.89222
67900,53.89222
67933,53.89222
67967,53.89222
68000,53.89222
68033,53.89222
68067,53.89222
68100,53.89222
68133,53.89222
68167,53.89222
68200,53.89222
68233,53.89222
68267,53.89222
68300,53.89222
68333,53.89222
68367,53.89222
68400,53.89222
68433,53.89222
68467,53.89222
68500,53.89222
68533,53.89222
68567,53.89222
68600,53.89222
68633,53.89222
68667,53.89222
68700,53.89222
68733,53.89222
68767,54.54546
68800,54.27136
68833,54.27136
68867,54.27136
68900,54.27136
68933,54.27136
68967,54.27136
69000,54.87805
69033,54.87805
69067,54.87805
69100,54.87805
69133,54.87805
69167,54.87805
69200,54.87805
69233,54.87805
69267,54.87805
69300,54.87805
69333,54.87805
69367,54.87805
69400,54.87805
69433,54.87805
69467,54.87805
69500,54.87805
69533,54.87805
69567,54.87805
69600,54.87805
69633,54.87805
69667,54.87805
69700,54.87805
69733,54.87805
69767,54.87805
69800,54.87805
69833,54.87805
69867,54.87805
69900,54.87805
69933,54.87805
69967,54.87805
70000,54.87805
70033,54.87805
70067,54.87805
70100,54.87805
70133,54.87805
70167,54.54546
70200,54.54546
70233,54.54546
70267,54.54546
70300,54.54546
70333,54.54546
70367,53.89222
70400,53.89222
70433,53.89222
70467,53.89222
70500,53.89222
70533,53.89222
70567,53.89222
70600,53.89222
70633,53.89222
70667,53.89222
70700,53.89222
70733,53.89222
70767,53.89222
70800,53.89222
70833,53.89222
70867,53.89222
70900,53.89222
70933,53.89222
70967,55.55556
71000,55.55556
71033,55.55556
71067,55.55556
71100,55.55556
71133,55.55556
71167,55.6701
71200,55.6701
71233,56.96202
71267,56.96202
71300,56.96202
71333,56.96202
71367,56.96202
71400,56.96202
71433,56.96202
71467,56.96202
71500,56.96202
71533,56.96202
71567,56.96202
71600,56.96202
71633,56.96202
71667,56.96202
71700,56.96202
71733,56.96202
71767,56.96202
71800,56.96202
71833,56.96202
71867,56.96202
71900,57.14286
71933,57.14286
71967,57.14286
72000,57.14286
72033,57.14286
72067,57.14286
72100,57.14286
72133,57.14286
72167,57.14286
72200,57.14286
72233,57.14286
72267,57.14286
72300,57.14286
72333,57.14286
72367,57.14286
72400,57.14286
72433,57.32484
72467,57.32484
72500,57.32484
72533,57.32484
72567,57.32484
72600,57.32484
72633,57.32484
72667,57.32484
72700,57.32484
72733,57.32484
72767,57.32484
72800,57.32484
72833,57.32484
72867,57.32484
72900,57.32484
72933,57.32484
72967,57.32484
73000,56.84211
73033,56.84211
73067,56.84211
73100,56.84211
73133,56.84211
73167,56.84211
73200,56.84211
73233,56.84211
73267,56.84211
73300,56.84211
73333,56.84211
73367,56.84211
73400,56.84211
73433,56.84211
73467,56.84211
73500,56.96202
73533,56.96202
73567,56.96202
73600,56.96202
73633,56.96202
73667,56.96202
73700,56.96202
73733,56.96202
73767,56.96202
73800,56.96202
73833,56.96202
73867,56.96202
73900,56.96202
73933,56.96202
73967,56.96202
74000,57.44681
74033,57.44681
74067,57.44681
74100,57.44681
74133,57.44681
74167,57.44681
74200,57.44681
74233,57.44681
74267,57.44681
74300,57.44681
74333,57.44681
74367,57.44681
74400,57.44681
74433,57.44681
74467,57.44681
74500,57.44681
74533,57.44681
74567,57.69231
74600,57.69231
74633,57.69231
74667,57.69231
74700,57.69231
74733,57.69231
74767,57.69231
74800,57.69231
74833,57.69231
74867,57.69231
74900,57.69231
74933,57.69231
74967,57.69231
75000,57.69231
75033,57.69231
75067,57.69231
75100,57.14286
75133,57.14286
75167,57.14286
75200,57.14286
75233,57.14286
75267,57.14286
75300,57.14286
75333,57.14286
75367,57.14286
75400,57.14286
75433,57.14286
75467,57.14286
75500,57.14286
75533,57.14286
75567,57.14286
75600,57.14286
75633,56.96202
75667,56.96202
75700,56.96202
75733,56.96202
75767,56.96202
75800,56.96202
75833,56.96202
75867,56.96202
75900,56.96202
75933,56.96202
75967,56.96202
76000,56.96202
76033,56.96202
76067,56.96202
76100,56.96202
76133,56.96202
76167,56.96202
76200,56.96202
76233,56.25
76267,56.25
76300,56.25
76333,56.25
76367,56.25
76400,56.25
76433,56.25
76467,56.25
76500,56.25
76533,56.25
76567,56.25
76600,56.25
76633,55.90062
76667,55.90062
76700,55.90062
76733,55.90062
76767,55.90062
76800,55.90062
76833,55.90062
76867,55.90062
76900,55.90062
76933,55.90062
76967,55.90062
77000,55.90062
77033,55.90062
77067,55.90062
77100,55.90062
77133,55.90062
77167,55.90062
77200,55.90062
77233,55.90062
77267,56.25
77300,56.25
77333,56.25
77367,56.25
77400,56.25
77433,56.25
77467,56.25
77500,56.25
77533,56.25
77567,56.25
77600,56.25
77633,56.25
77667,56.25
77700,55.90062
77733,55.90062
77767,55.90062
77800,55.90062
77833,55.90062
77867,55.90062
77900,55.90062
77933,55.90062
77967,55.90062
78000,55.90062
78033,55.90062
78067,55.90062
78100,55.90062
78133,55.90062
78167,55.90062
78200,55.90062
78233,55.90062
78267,55.90062
78300,55.90062
78333,55.90062
78367,55.95855
78400,55.6701
78433,55.6701
78467,55.6701
78500,55.6701
78533,55.6701
78567,55.6701
78600,55.6701
78633,55.6701
78667,55.6701
78700,55.6701
78733,55.90062
78767,55.90062
78800,55.90062
78833,55.90062
78867,55.90062
78900,55.90062
78933,55.90062
78967,55.90062
79000,55.90062
79033,55.90062
79067,55.90062
79100,55.90062
79133,55.90062
79167,55.90062
79200,55.90062
79233,55.90062
79267,55.90062
79300,55.90062
79333,55.90062
79367,55.90062
79400,56.5445
79433,56.5445
79467,56.5445
79500,56.5445
79533,56.5445
79567,56.5445
79600,56.5445
79633,56.5445
79667,56.5445
79700,56.5445
79733,56.5445
79767,56.5445
79800,56.5445
79833,55.90062
79867,55.90062
79900,55.90062
79933,55.90062
79967,55.90062
80000,55.90062
80033,55.90062
80067,55.90062
80100,55.90062
80133,55.90062
80167,55.90062
80200,55.90062
80233,55.90062
80267,55.90062
80300,55.90062
80333,55.90062
80367,56.5445
80400,56.5445
80433,56.5445
80467,56.5445
80500,56.5445
80533,56.5445
80567,56.5445
80600,56.5445
80633,56.5445
80667,56.5445
80700,56.5445
80733,56.5445
80767,56.5445
80800,56.5445
80833,56.96202
80867,56.96202
80900,56.96202
80933,56.96202
80967,56.96202
81000,56.96202
81033,56.96202
81067,56.96202
81100,56.96202
81133,56.96202
81167,56.96202
81200,56.96202
81233,56.96202
81267,56.96202
81300,56.96202
81333,56.96202
81367,56.96202
81400,56.96202
81433,56.84211
81467,56.84211
81500,56.84211
81533,56.84211
81567,56.84211
81600,56.84211
81633,56.84211
81667,56.84211
81700,56.84211
81733,56.84211
81767,56.84211
81800,56.84211
81833,56.84211
81867,56.84211
81900,56.84211
81933,57.69231
81967,57.69231
82000,57.69231
82033,57.69231
82067,57.69231
82100,57.69231
82133,57.69231
82167,57.69231
82200,57.69231
82233,57.69231
82267,57.69231
82300,57.69231
82333,57.69231
82367,58.69565
82400,58.69565
82433,58.69565
82467,58.69565
82500,58.69565
82533,58.69565
82567,58.69565
82600,58.69565
82633,58.69565
82667,58.69565
82700,58.69565
82733,58.69565
82767,58.69565
82800,58.69565
82833,58.69565
82867,58.69565
82900,58.69565
82933,58.69565
82967,58.69565
83000,58.69565
83033,58.69565
83067,58.82353000000001
83100,58.82353000000001
83133,58.82353000000001
83167,58.82353000000001
83200,58.82353000000001
83233,58.82353000000001
83267,58.82353000000001
83300,58.82353000000001
83333,58.82353000000001
83367,58.82353000000001
83400,58.69565
83433,58.69565
83467,58.69565
83500,58.69565
83533,58.69565
83567,58.69565
83600,58.69565
83633,58.69565
83667,58.69565
83700,58.69565
83733,58.69565
83767,58.69565
83800,58.69565
83833,58.69565
83867,58.69565
83900,58.69565
83933,58.69565
83967,58.69565
84000,58.69565
84033,58.69565
84067,58.69565
84100,59.60265
84133,59.60265
84167,59.60265
84200,59.60265
84233,59.60265
84267,59.60265
84300,59.60265
84333,59.60265
84367,59.60265
84400,59.60265
84433,59.60265
84467,59.60265
84500,59.60265
84533,59.60265
84567,59.60265
84600,57.75401
84633,57.75401
84667,57.75401
84700,57.75401
84733,57.75401
84767,57.75401
84800,57.75401
84833,57.75401
84867,57.75401
84900,57.75401
84933,57.75401
84967,57.75401
85000,57.75401
85033,57.75401
85067,57.75401
85100,57.75401
85133,57.75401
85167,57.75401
85200,57.32484
85233,57.32484
85267,57.32484
85300,57.32484
85333,57.32484
85367,57.32484
85400,57.32484
85433,57.32484
85467,57.32484
85500,57.32484
85533,57.32484
85567,57.32484
85600,57.32484
85633,57.44681
85667,57.44681
85700,57.44681
85733,57.44681
85767,57.44681
85800,57.44681
85833,57.44681
85867,57.44681
85900,57.44681
85933,57.44681
85967,57.44681
86000,57.44681
86033,57.44681
86067,57.44681
86100,57.44681
86133,57.44681
86167,57.44681
86200,56.96202
86233,56.96202
86267,56.96202
86300,56.96202
86333,56.96202
86367,56.96202
86400,56.96202
86433,56.96202
86467,56.96202
86500,56.96202
86533,56.96202
86567,56.96202
86600,56.96202
86633,56.96202
86667,57.14286
86700,57.14286
86733,57.14286
86767,57.14286
86800,57.14286
86833,57.14286
86867,57.14286
86900,57.14286
86933,57.14286
86967,57.14286
87000,57.14286
87033,57.14286
87067,57.14286
87100,57.14286
87133,57.14286
87167,57.14286
87200,56.96202
87233,56.96202
87267,56.96202
87300,56.96202
87333,56.96202
87367,56.96202
87400,56.96202
87433,56.96202
87467,56.96202
87500,56.96202
87533,56.96202
87567,56.96202
87600,56.96202
87633,56.96202
87667,56.96202
87700,56.96202
87733,56.84211
87767,56.96202
87800,56.84211
87833,56.84211
87867,56.84211
87900,56.84211
87933,56.84211
87967,56.84211
88000,56.84211
88033,56.84211
88067,56.84211
88100,56.84211
88133,56.84211
88167,56.84211
88200,56.84211
88233,55.90062
88267,55.90062
88300,55.90062
88333,55.90062
88367,55.90062
88400,55.90062
88433,55.90062
88467,55.90062
88500,55.90062
88533,55.90062
88567,55.90062
88600,55.90062
88633,55.90062
88667,55.90062
88700,55.90062
88733,55.90062
88767,55.90062
88800,55.90062
88833,55.90062
88867,55.38462
88900,55.38462
88933,55.38462
88967,55.38462
89000,55.38462
89033,55.38462
89067,55.38462
89100,55.38462
89133,55.38462
89167,55.38462
89200,54.87805
89233,54.87805
89267,54.87805
89300,54.87805
89333,54.87805
89367,54.87805
89400,54.87805
89433,54.87805
89467,54.87805
89500,54.87805
89533,55.21473
89567,55.21473
89600,55.21473
89633,55.21473
89667,55.21473
89700,55.21473
89733,55.21473
89767,55.21473
89800,56.25
89833,56.25
89867,56.25
89900,56.25
89933,56.25
89967,56.25
90000,56.25
90033,56.25
90067,56.25
90100,56.25
90133,56.25
90167,56.25
90200,56.25
90233,57.69231
90267,57.69231
90300,57.69231
90333,57.69231
90367,57.69231
90400,57.69231
90433,57.69231
90467,57.69231
90500,57.69231
90533,57.69231
90567,57.69231
90600,57.69231
90633,57.69231
90667,57.69231
90700,57.69231
90733,57.69231
90767,57.69231
90800,57.69231
90833,57.69231
90867,57.44681
90900,57.44681
90933,57.44681
90967,57.14286
91000,57.14286
91033,57.14286
91067,57.14286
91100,57.14286
91133,57.14286
91167,57.14286
91200,57.14286
91233,57.14286
91267,57.14286
91300,57.14286
91333,57.14286
91367,57.14286
91400,57.14286
91433,56.96202
91467,56.96202
91500,56.96202
91533,56.96202
91567,56.96202
91600,56.96202
91633,56.96202
91667,56.96202
91700,56.96202
91733,56.96202
91767,56.96202
91800,56.96202
91833,58.06452
91867,56.96202
91900,58.06452
91933,58.06452
91967,58.06452
92000,58.06452
92033,58.06452
92067,58.06452
92100,58.06452
92133,58.06452
92167,58.06452
92200,58.06452
92233,58.06452
92267,58.06452
92300,58.06452
92333,58.06452
92367,58.06452
92400,58.06452
92433,58.06452
92467,57.69231
92500,57.69231
92533,57.69231
92567,57.69231
92600,57.69231
92633,57.69231
92667,57.69231
92700,59.34066
92733,59.34066
92767,59.34066
92800,59.34066
92833,59.34066
92867,59.34066
92900,59.34066
92933,59.34066
92967,59.34066
93000,59.34066
93033,59.34066
93067,59.34066
93100,59.34066
93133,59.34066
93167,59.34066
93200,59.34066
93233,59.34066
93267,59.34066
93300,59.34066
93333,59.34066
93367,59.34066
93400,59.34066
93433,59.34066
93467,60.40268
93500,60.40268
93533,60.40268
93567,60.40268
93600,60.40268
93633,61.01695
93667,61.01695
93700,61.36364
93733,61.36364
93767,61.36364
93800,61.36364
93833,61.36364
93867,61.36364
93900,61.36364
93933,61.36364
93967,61.36364
94000,61.36364
94033,61.36364
94067,61.36364
94100,61.36364
94133,61.36364
94167,61.36364
94200,61.36364
94233,61.36364
94267,61.36364
94300,61.36364
94333,61.36364
94367,61.36364
94400,61.36364
94433,61.36364
94467,62.37624
94500,62.37624
94533,62.37624
94567,63.905330000000006
94600,63.905330000000006
94633,63.905330000000006
94667,63.905330000000006
94700,63.905330000000006
94733,63.905330000000006
94767,63.905330000000006
94800,63.905330000000006
94833,63.905330000000006
94867,63.905330000000006
94900,63.905330000000006
94933,63.905330000000006
94967,63.905330000000006
95000,63.905330000000006
95033,63.905330000000006
95067,63.905330000000006
95100,63.905330000000006
95133,63.905330000000006
95167,63.905330000000006
95200,63.905330000000006
95233,63.905330000000006
95267,65.28497
95300,63.905330000000006
95333,64.61539
95367,64.61539
95400,64.61539
95433,64.61539
95467,64.61539
95500,64.61539
95533,64.61539
95567,64.61539
95600,64.61539
95633,64.61539
95667,65.06024000000001
95700,65.06024000000001
95733,65.06024000000001
95767,65.06024000000001
95800,65.06024000000001
95833,65.06024000000001
95867,65.06024000000001
95900,65.06024000000001
95933,65.06024000000001
95967,65.06024000000001
96000,65.06024000000001
96033,65.06024000000001
96067,65.06024000000001
96100,65.06024000000001
96133,65.06024000000001
96167,65.06024000000001
96200,65.06024000000001
96233,65.06024000000001
96267,65.06024000000001
96300,65.06024000000001
96333,65.06024000000001
96367,63.95939
96400,63.95939
96433,63.95939
96467,63.95939
96500,63.95939
96533,63.95939
96567,63.95939
96600,63.95939
96633,65.85365999999999
96667,65.85365999999999
96700,65.85365999999999
96733,65.85365999999999
96767,65.85365999999999
96800,65.85365999999999
96833,65.85365999999999
96867,65.85365999999999
96900,65.85365999999999
96933,65.85365999999999
96967,65.85365999999999
97000,65.85365999999999
97033,65.85365999999999
97067,65.85365999999999
97100,65.85365999999999
97133,65.85365999999999
97167,65.85365999999999
97200,65.85365999999999
97233,65.85365999999999
97267,65.85365999999999
97300,65.85365999999999
97333,65.85365999999999
97367,65.85365999999999
97400,65.85365999999999
97433,65.85365999999999
97467,65.85365999999999
97500,63.63636
97533,63.63636
97567,63.63636
97600,63.63636
97633,63.63636
97667,63.63636
97700,63.63636
97733,63.52941
97767,63.52941
97800,63.52941
97833,63.52941
97867,63.52941
97900,63.52941
97933,63.52941
97967,63.52941
98000,63.52941
98033,63.52941
98067,63.52941
98100,63.52941
98133,63.52941
98167,63.52941
98200,63.52941
98233,63.52941
98267,63.52941
98300,63.52941
98333,63.52941
98367,63.52941
98400,63.52941
98433,63.52941
98467,63.31658
98500,63.31658
98533,63.31658
98567,63.31658
98600,63.31658
98633,63.31658
98667,62.7907
98700,62.7907
98733,62.7907
98767,62.7907
98800,62.7907
98833,62.7907
98867,62.7907
98900,62.7907
98933,62.7907
98967,62.7907
99000,62.7907
99033,62.7907
99067,62.7907
99100,62.7907
99133,62.7907
99167,62.7907
99200,62.7907
99233,62.7907
99267,62.7907
99300,62.7907
99333,62.7907
99367,62.7907
99400,63.0
99433,63.0
99467,63.0
99500,62.68657
99533,62.68657
99567,61.71429000000001
99600,61.71429000000001
99633,61.71429000000001
99667,61.71429000000001
99700,61.71429000000001
99733,61.71429000000001
99767,61.71429000000001
99800,61.71429000000001
99833,61.71429000000001
99867,61.71429000000001
99900,61.71429000000001
99933,61.71429000000001
99967,61.71429000000001
100000,61.71429000000001
100033,61.71429000000001
100067,61.71429000000001
100100,61.71429000000001
100133,61.71429000000001
100167,61.71429000000001
100200,61.71429000000001
100233,61.71429000000001
100267,61.71429000000001
100300,61.71429000000001
100333,61.71429000000001
100367,61.71429000000001
100400,61.71429000000001
100433,60.40268
100467,60.0
100500,60.0
100533,60.0
100567,60.0
100600,60.0
100633,60.0
100667,60.0
100700,60.0
100733,60.0
100767,60.0
100800,60.0
100833,60.0
100867,60.0
100900,60.0
100933,60.0
100967,60.0
101000,60.0
101033,60.0
101067,60.0
101100,60.0
101133,60.0
101167,60.0
101200,60.0
101233,60.0
101267,60.0
101300,58.44156
101333,60.0
101367,60.0
101400,60.0
101433,60.0
101467,60.0
101500,60.0
101533,60.0
101567,60.0
101600,60.0
101633,60.0
101667,60.0
101700,60.0
101733,60.0
101767,60.0
101800,60.0
101833,60.0
101867,60.0
101900,60.0
101933,60.0
101967,60.0
102000,60.0
102033,60.0
102067,60.0
102100,60.0
102133,60.0
102167,60.40268
102200,61.71429000000001
102233,61.71429000000001
102267,61.71429000000001
102300,61.71429000000001
102333,61.71429000000001
102367,61.71429000000001
102400,61.71429000000001
102433,61.71429000000001
102467,61.71429000000001
102500,61.71429000000001
102533,61.71429000000001
102567,61.71429000000001
102600,61.71429000000001
102633,61.71429000000001
102667,61.71429000000001
102700,61.71429000000001
102733,61.71429000000001
102767,61.71429000000001
102800,61.71429000000001
102833,61.71429000000001
102867,61.71429000000001
102900,61.71429000000001
102933,61.71429000000001
102967,61.71429000000001
103000,61.71429000000001
103033,61.71429000000001
103067,61.71429000000001
103100,61.71429000000001
103133,62.06896999999999
103167,62.06896999999999
103200,63.905330000000006
103233,63.905330000000006
103267,63.905330000000006
103300,63.905330000000006
103333,63.905330000000006
103367,63.905330000000006
103400,63.905330000000006
103433,63.905330000000006
103467,63.905330000000006
103500,63.905330000000006
103533,63.905330000000006
103567,63.905330000000006
103600,63.905330000000006
103633,63.905330000000006
103667,63.905330000000006
103700,63.905330000000006
103733,63.905330000000006
103767,63.905330000000006
103800,63.905330000000006
103833,63.905330000000006
103867,63.905330000000006
103900,63.905330000000006
103933,63.905330000000006
103967,63.905330000000006
104000,63.905330000000006
104033,63.905330000000006
104067,63.905330000000006
104100,63.905330000000006
104133,63.31658
104167,63.31658
104200,63.31658
104233,63.31658
104267,63.31658
104300,63.31658
104333,63.15789
104367,63.52941
104400,63.52941
104433,63.52941
104467,63.52941
104500,63.52941
104533,63.52941
104567,63.52941
104600,63.52941
104633,63.52941
104667,63.52941
104700,63.52941
104733,63.52941
104767,63.52941
104800,63.52941
104833,63.52941
104867,63.52941
104900,63.52941
104933,63.52941
104967,63.52941
105000,63.52941
105033,63.63636
105067,63.52941
105100,63.0
105133,63.0
105167,63.0
105200,63.0
105233,63.0
105267,63.52941
105300,63.52941
105333,63.52941
105367,63.52941
105400,63.52941
105433,63.52941
105467,63.52941
105500,63.52941
105533,63.52941
105567,63.52941
105600,63.52941
105633,63.52941
105667,63.52941
105700,63.52941
105733,63.52941
105767,63.52941
105800,63.52941
105833,63.52941
105867,63.52941
105900,63.52941
105933,63.52941
105967,63.52941
106000,63.52941
106033,63.52941
106067,63.52941
106100,63.52941
106133,62.68657
106167,62.68657
106200,62.68657
106233,62.68657
106267,63.52941
106300,63.52941
106333,63.15789
106367,63.52941
106400,63.52941
106433,63.52941
106467,63.52941
106500,63.52941
106533,63.52941
106567,63.52941
106600,63.52941
106633,63.52941
106667,63.52941
106700,63.52941
106733,63.52941
106767,63.52941
106800,63.52941
106833,63.52941
106867,63.52941
106900,63.52941
106933,63.52941
106967,63.52941
107000,63.52941
107033,63.52941
107067,63.52941
107100,63.63636
107133,63.31658
107167,63.31658
107200,63.31658
107233,63.31658
107267,63.31658
107300,62.42775
107333,62.42775
107367,62.42775
107400,62.42775
107433,62.42775
107467,62.42775
107500,62.42775
107533,62.42775
107567,62.42775
107600,62.42775
107633,62.42775
107667,62.42775
107700,62.42775
107733,62.42775
107767,62.42775
107800,62.42775
107833,62.42775
107867,62.42775
107900,62.7907
107933,62.7907
107967,62.7907
108133,62.68657
108167,61.71429000000001
108200,61.71429000000001
108233,61.71429000000001
108267,61.71429000000001
108300,61.71429000000001
108333,61.71429000000001
108367,61.71429000000001
108400,61.71429000000001
108433,61.71429000000001
108467,61.71429000000001
108500,61.71429000000001
108533,61.36364
108567,61.36364
108600,61.36364
108633,61.36364
108667,61.36364
108700,61.36364
108733,61.36364
108767,61.36364
108800,61.36364
108833,61.71429000000001
108867,61.71429000000001
108900,61.71429000000001
108933,61.71429000000001
108967,61.71429000000001
109000,61.71429000000001
109033,61.22449
109067,61.22449
109100,61.22449
109133,61.22449
109167,60.0
109200,60.0
109233,60.0
109267,60.0
109300,60.0
109333,60.0
109367,60.0
109400,60.0
109433,60.0
109467,60.0
109500,60.0
109533,60.0
109567,60.0
109600,60.0
109633,60.0
109667,60.0
109700,60.0
109733,60.0
109767,60.0
109800,60.0
109833,60.0
109867,60.0
109900,60.0
109933,60.0
109967,59.60265
110000,59.60265
110033,59.60265
110067,60.33519
110100,60.33519
110133,60.33519
110167,60.33519
110200,60.33519
110233,60.33519
110267,60.33519
110300,60.33519
110333,60.33519
110367,60.33519
110400,60.33519
110433,60.33519
110467,60.33519
110500,60.33519
110533,60.33519
110567,60.33519
110600,60.33519
110633,60.33519
110667,60.33519
110700,60.33519
110733,60.33519
110767,60.33519
110800,60.33519
110833,60.33519
110867,60.33519
110900,60.33519
110933,60.40268
110967,60.40268
111000,60.40268
111033,60.40268
111067,60.40268
111100,60.0
111133,60.0
111167,60.0
111200,60.0
111233,60.0
111267,60.0
111300,60.0
111333,60.0
111367,60.0
111400,60.0
111433,60.0
111467,60.0
111500,60.0
111533,60.0
111567,60.0
111600,60.0
111633,60.0
111667,60.0
111700,60.0
111733,60.0
111767,60.0
111800,60.0
111833,60.0
111867,60.0
111900,60.0
111933,60.40268
111967,60.40268
112000,60.40268
112033,60.40268
112067,60.67416
112100,60.67416
112133,60.67416
112167,60.67416
112200,60.67416
112233,60.67416
112267,60.67416
112300,60.67416
112333,60.67416
112367,60.67416
112400,60.67416
112433,60.67416
112467,60.67416
112500,60.67416
112533,60.67416
112567,60.67416
112600,60.67416
112633,60.67416
112667,60.67416
112700,60.67416
112733,60.67416
112767,60.67416
112800,60.67416
112833,60.67416
112867,60.67416
112900,60.67416
112933,60.67416
112967,60.40268
113000,61.01695
113033,61.01695
113067,61.01695
113100,61.01695
113133,61.01695
113167,61.01695
113200,61.01695
113233,61.01695
113267,61.01695
113300,61.01695
113333,61.01695
113367,61.01695
113400,61.01695
113433,61.01695
113467,61.01695
113500,61.01695
113533,61.01695
113567,61.01695
113600,61.01695
113633,61.01695
113667,61.01695
113700,61.01695
113733,61.01695
113767,61.01695
113800,61.01695
113833,61.01695
113867,61.01695
113900,61.01695
113933,60.81081
113967,60.81081
114000,60.67416
114033,60.67416
114067,60.67416
114100,60.67416
114133,60.67416
114167,60.67416
114200,60.67416
114233,60.67416
114267,60.67416
114300,60.67416
114333,60.67416
114367,60.67416
114400,60.67416
114433,60.67416
114467,60.67416
114500,60.67416
114533,60.67416
114567,60.67416
114600,60.67416
114633,60.67416
114667,60.67416
114700,60.67416
114733,60.67416
114767,60.67416
114800,60.67416
114833,60.67416
114867,60.67416
114900,61.64384
114933,62.06896999999999
114967,62.06896999999999
115000,62.06896999999999
115033,62.06896999999999
115067,62.06896999999999
115100,62.06896999999999
115133,62.06896999999999
115167,62.06896999999999
115200,62.06896999999999
115233,62.06896999999999
115267,62.06896999999999
115300,62.06896999999999
115333,62.06896999999999
115367,62.06896999999999
115400,62.06896999999999
115433,62.06896999999999
115467,62.06896999999999
115500,62.06896999999999
115533,62.06896999999999
115567,62.06896999999999
115600,62.06896999999999
115633,62.06896999999999
115667,62.06896999999999
115700,62.06896999999999
115733,62.06896999999999
115767,62.06896999999999
115800,62.06896999999999
115833,62.68657
115867,62.68657
115900,62.68657
115933,62.68657
115967,62.42775
116000,62.42775
116033,62.42775
116067,62.42775
116100,62.42775
116133,62.42775
116167,62.42775
116200,62.42775
116233,62.7907
116267,62.7907
116300,62.7907
116333,62.7907
116367,62.7907
116400,62.7907
116433,62.7907
116467,62.7907
116633,64.28571
116667,64.28571
116700,64.28571
116733,64.28571
116767,64.28571
116800,64.28571
116833,64.28571
116867,64.28571
116900,65.45454000000001
116933,65.45454000000001
116967,65.45454000000001
117000,65.45454000000001
117033,65.45454000000001
117067,65.45454000000001
117100,65.45454000000001
117133,65.45454000000001
117167,65.45454000000001
117200,65.45454000000001
117233,65.45454000000001
117267,65.45454000000001
117300,65.45454000000001
117333,65.45454000000001
117367,65.45454000000001
117400,65.45454000000001
117433,65.45454000000001
117467,65.45454000000001
117500,65.96859
117533,65.96859
117567,65.96859
117600,65.96859
117633,65.96859
117667,65.96859
117700,65.96859
117733,65.96859
117767,65.96859
117800,65.96859
117833,65.96859
117867,65.96859
117900,65.96859
117933,66.66666
117967,66.66666
118000,66.66666
118033,66.66666
118067,66.66666
118100,66.66666
118133,66.66666
118167,66.66666
118200,66.66666
118233,66.66666
118267,66.66666
118300,66.66666
118333,66.66666
118367,66.66666
118400,66.66666
118433,66.66666
118467,65.625
118500,65.625
118533,65.625
118567,65.625
118600,65.625
118633,65.625
118667,65.625
118700,65.625
118733,65.625
118767,65.625
118800,65.625
118833,65.625
118867,65.625
118900,65.85365999999999
118933,65.85365999999999
118967,65.85365999999999
119000,65.85365999999999
119033,65.85365999999999
119067,65.85365999999999
119100,65.85365999999999
119133,65.85365999999999
119167,65.85365999999999
119200,65.85365999999999
119233,65.85365999999999
119267,65.85365999999999
119300,65.85365999999999
119333,65.85365999999999
119367,65.85365999999999
119400,65.85365999999999
119433,65.625
119467,65.28497
119500,65.28497
119533,65.28497
119567,65.28497
119600,65.28497
119633,65.28497
119667,65.28497
119700,65.28497
119733,65.28497
119767,65.28497
119800,65.28497
119833,66.25766999999999
119867,66.25766999999999
119900,66.25766999999999
119933,66.25766999999999
119967,66.25766999999999
120000,66.25766999999999
120033,66.25766999999999
120067,66.25766999999999
120100,66.25766999999999
120133,66.25766999999999
120167,66.25766999999999
120200,66.25766999999999
120233,66.25766999999999
120267,66.25766999999999
120300,66.25766999999999
120333,66.25766999999999
120367,65.96859
120400,65.96859
120433,65.96859
120467,65.96859
120500,65.96859
120533,65.96859
120567,65.625
120600,65.625
120633,65.96859
120667,65.96859
120700,65.96859
120733,65.96859
120767,65.96859
120800,65.96859
120833,66.25766999999999
120867,66.25766999999999
120900,66.25766999999999
120933,66.25766999999999
120967,66.25766999999999
121000,66.25766999999999
121033,66.25766999999999
121067,66.25766999999999
121100,66.25766999999999
121133,66.25766999999999
121167,66.25766999999999
121200,66.25766999999999
121233,66.25766999999999
121267,66.25766999999999
121300,66.25766999999999
121333,65.625
121367,65.625
121400,65.625
121433,65.625
121467,65.625
121500,65.625
121533,65.625
121567,65.625
121600,65.625
121633,65.625
121667,65.625
121700,65.625
121733,65.625
121767,65.45454000000001
121800,65.45454000000001
121833,65.45454000000001
121867,65.45454000000001
121900,65.45454000000001
121933,65.45454000000001
121967,65.45454000000001
122000,65.45454000000001
122033,65.45454000000001
122067,65.45454000000001
122100,65.45454000000001
122133,65.45454000000001
122167,65.45454000000001
122200,65.45454000000001
122233,65.45454000000001
122267,65.45454000000001
122300,64.94846
122333,64.94846
122367,64.94846
122400,64.94846
122433,64.94846
122467,64.61539
122500,64.61539
122533,64.61539
122567,64.61539
122600,64.61539
122633,64.61539
122667,62.7907
122700,62.7907
122733,62.7907
122767,62.7907
122800,62.7907
122833,62.7907
122867,62.7907
122900,62.7907
122933,62.7907
122967,62.7907
123000,62.7907
123033,62.7907
123067,62.7907
123100,62.7907
123133,62.7907
123167,62.7907
123200,62.7907
123233,62.7907
123267,62.7907
123300,62.7907
123333,62.7907
123367,62.7907
123400,63.0
123433,62.42775
123467,62.42775
123500,62.42775
123533,62.42775
123567,62.42775
123600,62.42775
123633,62.42775
123667,62.42775
123700,62.42775
123733,62.42775
123767,62.42775
123800,62.42775
123833,62.42775
123867,62.42775
123900,62.42775
123933,62.42775
123967,62.42775
124000,62.42775
124033,62.42775
124067,63.63636
124100,63.63636
124133,63.63636
124167,63.63636
124200,63.63636
124233,63.63636
124267,63.63636
124300,64.28571
124333,64.28571
124367,64.28571
124400,64.28571
124433,64.28571
124467,64.28571
124500,64.28571
124533,64.28571
124567,64.28571
124600,64.28571
124633,64.28571
124667,64.28571
124700,64.28571
124733,64.28571
124767,64.28571
124800,64.28571
124833,64.28571
124867,64.28571
124900,64.28571
124933,64.94846
124967,64.94846
125000,64.94846
125033,64.94846
125067,64.94846
125100,64.94846
125133,64.94846
125167,64.94846
125200,64.94846
125233,64.94846
125267,64.94846
125300,65.45454000000001
125333,65.45454000000001
125367,65.45454000000001
125400,65.45454000000001
125433,65.45454000000001
125467,65.45454000000001
125500,65.45454000000001
125533,65.45454000000001
125567,65.45454000000001
125600,65.45454000000001
125633,65.45454000000001
125667,65.45454000000001
125700,65.45454000000001
125733,65.45454000000001
125767,65.45454000000001
125800,65.45454000000001
125833,65.45454000000001
125867,65.45454000000001
125900,65.45454000000001
125933,65.45454000000001
125967,65.45454000000001
126000,65.45454000000001
126033,65.45454000000001
126067,65.45454000000001
126100,65.45454000000001
126133,65.45454000000001
126167,65.45454000000001
126200,65.45454000000001
126233,65.45454000000001
126267,65.69343
126300,65.69343
126333,65.69343
126367,65.69343
126400,65.69343
126433,65.69343
126467,59.01639
126500,59.01639
126533,59.01639
126567,59.01639
126600,59.01639
126633,59.01639
126667,59.01639
126700,59.01639
126733,59.01639
126767,59.01639
126800,59.01639
126833,59.01639
126867,59.01639
126900,59.01639
126933,59.01639
126967,59.01639
127000,59.01639
127033,59.01639
127067,59.01639
127100,59.01639
127133,59.01639
127167,59.01639
127200,58.44156
127233,58.44156
127267,58.44156
127300,58.44156
127333,58.44156
127367,58.44156
127400,59.34066
127433,59.34066
127467,59.34066
127500,59.34066
127533,59.34066
127567,59.34066
127600,59.34066
127633,59.34066
127667,59.34066
127700,59.34066
127733,59.34066
127767,59.34066
127800,59.34066
127833,59.34066
127867,59.34066
127900,59.34066
127933,59.34066
127967,59.34066
128000,59.34066
128033,59.34066
128067,59.34066
128100,59.34066
128133,59.34066
128167,58.82353000000001
128200,58.82353000000001
128233,58.82353000000001
128267,58.82353000000001
128300,58.82353000000001
128333,58.82353000000001
128367,59.34066
128400,59.34066
128433,59.34066
128467,59.34066
128500,59.34066
128533,59.34066
128567,59.34066
128600,59.34066
128633,59.34066
128667,59.34066
128700,59.34066
128733,59.34066
128767,59.34066
128800,59.34066
128833,59.34066
128867,59.34066
128900,59.34066
128933,59.34066
128967,59.34066
129000,59.34066
129033,59.34066
129067,59.34066
129100,59.34066
129133,58.44156
129167,58.44156
129200,58.44156
129233,58.44156
129267,58.44156
129300,58.44156
129333,58.44156
129367,58.44156
129400,58.37838000000001
129433,58.37838000000001
129467,58.37838000000001
129500,58.37838000000001
129533,58.37838000000001
129567,58.37838000000001
129600,58.37838000000001
129633,58.37838000000001
129667,58.37838000000001
129700,58.37838000000001
129733,58.37838000000001
129767,58.37838000000001
129800,58.37838000000001
129833,58.37838000000001
129867,58.37838000000001
129900,58.37838000000001
129933,58.37838000000001
129967,58.37838000000001
130000,58.37838000000001
130033,58.37838000000001
130067,56.25
130100,56.25
130133,56.25
130167,56.25
130200,56.25
130233,56.25
130267,56.25
130300,56.25
130333,56.25
130367,57.14286
130400,57.14286
130433,57.14286
130467,57.14286
130500,57.14286
130533,57.14286
130567,57.14286
130600,57.14286
130633,57.14286
130667,57.14286
130700,57.14286
130733,57.14286
130767,57.14286
130800,57.14286
130833,57.14286
130867,57.14286
130900,55.21473
130933,55.21473
130967,55.21473
131000,55.21473
131033,55.21473
131067,55.21473
131100,55.21473
131133,55.21473
131167,55.21473
131200,55.21473
131233,55.21473
131267,55.21473
131300,55.21473
131333,55.21473
131367,55.21473
131400,55.6701
131433,55.6701
131467,55.6701
131500,55.6701
131533,55.6701
131567,55.6701
131600,55.6701
131633,55.6701
131667,55.6701
131700,55.6701
131733,55.6701
131767,60.81081
131800,60.81081
131833,60.81081
131867,60.81081
131900,60.81081
131933,60.81081
131967,60.81081
132000,60.81081
132033,60.81081
132067,60.81081
132100,60.81081
132133,60.81081
132167,60.81081
132200,60.81081
132233,60.81081
132267,60.81081
132300,60.81081
132333,60.81081
132367,61.01695
132400,60.81081
132433,60.81081
132467,60.0
132500,60.0
132533,60.0
132567,60.0
132600,60.0
132633,60.0
132667,60.0
132700,60.0
132733,60.0
132767,60.0
132800,60.0
132833,60.0
132867,60.0
132900,60.0
132933,60.0
132967,60.0
133000,60.0
133033,60.0
133067,60.0
133100,60.0
133133,60.0
133167,60.0
133200,60.0
133233,60.0
133267,60.0
133300,59.21053000000001
133333,59.21053000000001
133367,59.21053000000001
133400,60.0
133433,60.0
133467,60.0
133500,60.0
133533,60.0
133567,60.0
133600,60.0
133633,60.0
133667,60.0
133700,60.0
133733,60.0
133767,60.0
133800,60.0
133833,60.0
133867,60.0
133900,60.0
133933,60.0
133967,60.0
134000,60.0
134033,60.0
134067,60.0
134100,60.0
134133,60.0
134167,60.0
134200,60.0
134233,59.60265
134267,59.60265
134300,59.60265
134333,59.60265
134367,59.60265
134400,59.60265
134433,59.34066
134467,59.34066
134500,59.34066
134533,59.66851
134567,59.34066
134600,59.34066
134633,59.34066
134667,59.34066
134700,59.34066
134733,59.34066
134767,59.34066
134800,59.34066
134833,59.34066
134867,59.34066
134900,59.34066
134933,59.34066
134967,59.66851
135000,59.66851
135033,59.66851
135067,59.66851
135100,59.66851
135133,59.66851
135167,59.66851
135200,60.0
135233,60.0
135267,60.0
135300,60.0
135333,60.0
135367,60.0
135400,60.0
135433,60.0
135467,60.0
135500,60.0
135533,60.0
135567,60.0
135600,60.0
135633,60.0
135667,60.0
135700,60.0
135733,60.0
135767,60.0
135800,60.0
135833,60.0
135867,60.0
135900,60.0
135933,60.0
135967,60.0
136000,60.0
136033,60.0
136067,60.0
136100,60.0
136133,60.0
136167,60.0
136200,60.0
136233,59.60265
136267,59.60265
136300,59.60265
136333,59.60265
136367,59.60265
136400,59.60265
136433,59.60265
136467,59.01639
136500,59.01639
136533,59.01639
136567,59.01639
136600,59.01639
136633,59.01639
136667,59.01639
136700,59.01639
136733,59.01639
136767,59.01639
136800,59.01639
136833,59.01639
136867,59.01639
136900,59.01639
136933,59.01639
136967,59.01639
137000,59.01639
137033,59.01639
137067,59.01639
137100,59.01639
137133,59.01639
137167,59.01639
137200,59.21053000000001
137233,59.21053000000001
137267,59.21053000000001
137300,59.21053000000001
137333,59.21053000000001
137367,59.21053000000001
137400,60.0
137433,60.0
137467,60.0
137500,60.0
137533,60.0
137567,60.0
137600,60.0
137633,60.0
137667,60.0
137700,60.0
137733,60.0
137767,60.0
137800,60.0
137833,60.0
137867,60.0
137900,60.0
137933,60.0
137967,60.0
138000,60.0
138033,60.0
138067,60.0
138100,60.0
138133,60.0
138167,60.0
138200,60.0
138233,60.81081
138267,60.81081
138300,60.81081
138333,60.81081
138367,61.01695
138400,61.01695
138433,61.01695
138467,61.01695
138500,61.01695
138533,61.01695
138567,61.01695
138600,61.01695
138633,61.01695
138667,61.01695
138700,61.01695
138733,61.01695
138767,61.01695
138800,61.01695
138833,61.01695
138867,61.01695
138900,61.01695
138933,61.01695
138967,61.01695
139000,61.01695
139033,61.01695
139067,61.01695
139100,61.01695
139133,61.01695
139167,61.01695
139200,61.01695
139233,61.01695
139267,61.01695
139300,60.40268
139333,60.67416
139367,60.67416
139400,60.67416
139433,60.67416
139467,60.67416
139500,60.67416
139533,60.67416
139567,60.67416
139600,60.67416
139633,60.67416
139667,60.67416
139700,60.67416
139733,60.67416
139767,60.67416
139800,60.67416
139833,60.67416
139867,60.67416
139900,60.67416
139933,60.67416
139967,60.67416
140000,60.67416
140033,60.67416
140067,60.67416
140100,60.67416
140133,60.67416
140167,60.67416
140200,60.67416
140233,60.81081
140267,60.81081
140300,60.81081
140333,60.67416
140367,60.67416
140400,60.67416
140433,60.67416
140467,60.67416
140500,60.67416
140533,60.67416
140567,60.67416
140600,60.67416
140633,60.67416
140667,60.67416
140700,60.67416
140733,60.67416
140767,60.67416
140800,60.67416
140833,60.67416
140867,60.67416
140900,60.67416
140933,60.67416
140967,60.67416
141000,60.67416
141033,60.67416
141067,60.67416
141100,60.67416
141133,60.67416
141167,60.67416
141200,60.67416
141233,60.81081
141267,60.81081
141300,60.81081
141333,61.01695
141367,61.01695
141400,61.01695
141433,61.01695
141467,61.01695
141500,61.01695
141533,60.67416
141567,60.67416
141600,60.67416
141633,60.67416
141667,60.67416
141700,60.67416
141733,60.67416
141767,60.67416
141800,60.67416
141833,60.67416
141867,60.67416
141900,60.67416
141933,60.67416
141967,60.67416
142000,60.67416
142033,60.67416
142067,60.67416
142100,60.67416
142133,60.67416
142167,60.67416
142200,60.67416
142233,61.64384
142267,61.64384
142300,61.64384
142333,61.64384
142367,61.64384
142400,60.67416
142433,60.67416
142467,60.67416
142500,60.67416
142533,60.67416
142567,60.67416
142600,60.67416
142633,60.67416
142667,60.67416
142700,60.67416
142733,60.67416
142767,60.67416
142800,60.67416
142833,60.67416
142867,60.67416
142900,60.67416
142933,60.67416
142967,60.67416
143000,60.67416
143033,60.67416
143067,60.67416
143100,60.67416
143133,60.67416
143167,60.67416
143200,60.67416
143233,60.67416
143267,60.67416
143300,60.0
143333,60.0
143367,60.0
143400,60.0
143433,60.0
143467,60.0
143500,60.0
143533,60.0
143567,60.0
143600,60.0
143633,60.0
143667,60.0
143700,60.0
143733,60.0
143767,60.0
143800,60.0
143833,60.0
143867,60.0
143900,60.0
143933,60.0
143967,60.0
144000,60.0
144033,60.0
144067,60.0
144100,60.0
144133,60.0
144167,60.0
144200,60.0
144233,59.60265
144267,59.60265
144300,59.60265
144333,59.60265
144367,59.60265
144400,59.60265
144433,59.34066
144467,59.34066
144500,59.34066
144533,59.34066
144567,59.34066
144600,59.34066
144633,59.34066
144667,59.34066
144700,59.34066
144733,59.34066
144767,59.34066
144800,59.34066
144833,59.34066
144867,59.34066
144900,59.34066
144933,59.34066
144967,59.34066
145000,59.34066
145033,59.34066
145067,59.34066
145100,59.34066
145133,59.34066
145167,59.34066
145200,58.82353000000001
145233,58.82353000000001
145267,58.82353000000001
145300,58.82353000000001
145333,60.0
145367,59.66851
145400,59.66851
145433,59.66851
145467,59.66851
145500,59.66851
145533,59.66851
145567,59.66851
145600,59.66851
145633,59.34066
145667,59.34066
145700,59.34066
145733,59.34066
145767,59.34066
145800,59.34066
145833,59.34066
145867,59.34066
145900,59.34066
145933,59.34066
145967,59.34066
146000,59.34066
146033,59.34066
146067,59.34066
146100,59.34066
146133,59.34066
146167,59.21053000000001
146200,59.21053000000001
146233,59.21053000000001
146267,59.21053000000001
146300,60.33519
146333,59.21053000000001
146367,59.66851
146400,59.66851
146433,59.66851
146467,59.66851
146500,59.66851
146533,59.66851
146567,59.66851
146600,59.66851
146633,59.66851
146667,59.66851
146700,59.66851
146733,59.66851
146767,59.66851
146800,59.66851
146833,59.66851
146867,59.66851
146900,59.66851
146933,59.66851
146967,59.66851
147000,59.66851
147033,59.66851
147067,59.66851
147100,59.66851
147133,59.66851
147167,59.21053000000001
147200,59.21053000000001
147233,59.21053000000001
147267,59.21053000000001
147300,59.21053000000001
147333,59.66851
147367,59.66851
147400,59.66851
147433,59.66851
147467,59.66851
147500,59.66851
147533,59.34066
147567,59.34066
147600,59.34066
147633,59.34066
147667,59.34066
147700,59.34066
147733,59.34066
147767,59.34066
147800,59.34066
147833,59.34066
147867,59.34066
147900,59.34066
147933,59.34066
147967,59.34066
148000,59.34066
148033,59.34066
148067,59.34066
148100,59.34066
148133,60.40268
148167,60.40268
148200,60.40268
148233,60.40268
148267,60.40268
148300,60.40268
148333,60.40268
148367,60.33519
148400,60.33519
148433,60.33519
148467,60.33519
148500,60.33519
148533,60.33519
148567,60.33519
148600,60.33519
148633,60.33519
148667,60.33519
148700,60.33519
148733,60.33519
148767,60.33519
148800,60.33519
148833,60.33519
148867,60.33519
148900,60.33519
148933,60.33519
148967,60.33519
149000,60.33519
149033,60.33519
149067,60.33519
149100,60.33519
149133,60.33519
149167,60.33519
149200,60.33519
149233,60.40268
149267,60.40268
149300,60.40268
149333,60.40268
149367,60.33519
149400,60.33519
149433,60.33519
149467,60.33519
149533,60.33519
149567,60.33519
149600,60.33519
149633,60.33519
149667,60.33519
149700,60.33519
149733,60.33519
149767,60.33519
149800,60.33519
149833,60.33519
149867,60.33519
149900,60.33519
149933,60.33519
149967,60.33519
150000,60.33519
150033,60.33519
150067,60.33519
150100,60.33519
150133,60.33519
150167,60.33519
150200,60.33519
150233,60.81081
150267,60.81081
150300,61.36364
150333,61.36364
150367,61.36364
150400,61.36364
150433,61.36364
150467,61.36364
150500,61.36364
150533,61.36364
150567,61.36364
150600,61.36364
150633,61.36364
150667,61.36364
150700,61.36364
150733,61.36364
150767,61.36364
150800,61.36364
150833,61.36364
150867,61.36364
150900,61.36364
150933,61.36364
150967,61.36364
151000,61.36364
151033,61.36364
151067,61.36364
151100,61.36364
151133,61.36364
151167,61.36364
151200,62.06896999999999
151233,62.06896999999999
151267,61.71429000000001
151300,61.71429000000001
151333,61.71429000000001
151367,61.71429000000001
151400,61.71429000000001
151433,61.71429000000001
151467,61.71429000000001
151500,61.71429000000001
151533,61.71429000000001
151567,61.71429000000001
151600,61.71429000000001
151633,61.71429000000001
151667,61.71429000000001
151700,61.71429000000001
151733,61.71429000000001
151767,61.71429000000001
151800,61.71429000000001
151833,61.71429000000001
151867,61.71429000000001
151900,61.71429000000001
151933,61.71429000000001
151967,61.71429000000001
152000,61.71429000000001
152033,61.71429000000001
152067,63.0
152100,63.0
152133,63.0
152167,63.0
152200,63.31658
152233,63.52941
152267,63.52941
152300,63.52941
152333,63.52941
152367,63.52941
152400,63.52941
152433,63.52941
152467,63.52941
152500,63.52941
152533,63.52941
152567,63.52941
152600,63.52941
152633,63.52941
152667,63.52941
152700,63.52941
152733,63.52941
152767,65.625
152800,65.625
152833,65.625
152867,65.625
152900,65.625
152933,65.625
152967,65.625
153000,65.625
153033,65.625
153067,65.625
153100,65.625
153133,65.625
153167,65.625
153200,66.25766999999999
153233,66.25766999999999
153267,66.25766999999999
153300,66.25766999999999
153333,66.25766999999999
153367,66.25766999999999
153400,66.25766999999999
153433,66.25766999999999
153467,66.25766999999999
153500,66.25766999999999
153533,66.25766999999999
153567,66.25766999999999
153600,66.25766999999999
153633,66.25766999999999
153667,66.31579
153700,66.31579
153733,66.31579
153767,66.31579
153800,66.31579
153833,66.31579
153867,66.31579
153900,66.31579
153933,66.31579
153967,66.31579
154000,66.31579
154033,66.31579
154067,66.31579
154100,66.31579
154133,66.31579
154167,67.92453
154200,67.92453
154233,67.92453
154267,67.92453
154300,67.92453
154333,67.92453
154367,67.92453
154400,67.92453
154433,67.92453
154467,67.92453
154500,67.92453
154533,67.92453
154567,67.92453
154600,67.37968000000001
154633,67.37968000000001
154667,67.37968000000001
154700,67.37968000000001
154733,67.37968000000001
154767,67.37968000000001
154800,67.37968000000001
154833,67.37968000000001
154867,67.37968000000001
154900,67.37968000000001
154933,67.37968000000001
154967,67.37968000000001
155000,67.37968000000001
155033,67.37968000000001
155067,67.37968000000001
155100,67.37968000000001
155133,67.37968000000001
155167,67.37968000000001
155200,68.78981
155233,68.78981
155267,68.78981
155300,68.78981
155333,68.78981
155367,68.78981
155400,68.78981
155433,68.78981
155467,68.78981
155500,68.47825999999999
155533,68.47825999999999
155567,68.47825999999999
155600,68.47825999999999
155633,68.47825999999999
155667,68.47825999999999
155700,68.47825999999999
155733,68.47825999999999
155767,68.47825999999999
155800,68.47825999999999
155833,68.47825999999999
155867,68.47825999999999
155900,68.47825999999999
155933,68.47825999999999
155967,68.47825999999999
156000,68.47825999999999
156033,68.47825999999999
156067,68.47825999999999
156100,68.47825999999999
156133,68.47825999999999
156167,68.47825999999999
156200,69.23076999999999
156233,69.23076999999999
156267,69.23076999999999
156300,69.23076999999999
156333,69.67742
156367,69.61326
156400,69.61326
156433,69.61326
156467,69.61326
156500,69.61326
156533,69.61326
156567,69.61326
156600,69.61326
156633,69.61326
156667,69.61326
156700,69.61326
156733,69.61326
156767,69.61326
156800,69.61326
156833,69.61326
156867,69.61326
156900,69.61326
156933,69.61326
156967,69.61326
157000,70.0
157033,70.0
157067,70.0
157100,70.0
157133,70.0
157167,70.12987
157200,70.12987
157233,70.12987
157267,70.12987
157300,70.12987
157333,68.47825999999999
157367,68.10811
157400,68.10811
157433,68.47825999999999
157467,68.10811
157500,68.10811
157533,68.10811
157567,68.10811
157600,68.10811
157633,68.10811
157667,68.10811
157700,68.10811
157733,68.10811
157767,68.10811
157800,68.10811
157833,68.10811
157867,68.10811
157900,68.10811
157933,68.10811
157967,68.10811
158033,67.5
158067,67.5
158100,67.5
158133,67.5
158167,67.5
158200,67.5
158233,67.5
158267,67.5
158300,67.5
158333,67.5
158367,66.31579
158400,66.31579
158433,65.625
158467,65.625
158500,65.625
158533,65.625
158567,65.96859
158600,65.96859
158633,65.96859
158667,65.96859
158700,65.96859
158733,65.96859
158767,65.96859
158800,65.96859
158833,65.96859
158867,63.905330000000006
158900,63.905330000000006
158933,63.905330000000006
158967,63.905330000000006
159000,63.905330000000006
159033,63.905330000000006
159067,63.905330000000006
159100,63.905330000000006
159133,63.905330000000006
159167,63.905330000000006
159200,63.905330000000006
159233,63.905330000000006
159267,63.905330000000006
159300,63.905330000000006
159333,63.905330000000006
159367,63.905330000000006
159400,63.31658
159433,63.31658
159467,63.31658
159500,63.31658
159533,63.31658
159567,63.31658
159600,62.7907
159633,62.7907
159667,62.7907
159700,62.7907
159733,62.7907
159767,62.7907
159800,62.7907
159833,62.7907
159867,62.7907
159900,62.7907
159933,62.7907
159967,62.7907
160000,62.7907
160033,62.7907
160067,62.7907
160100,62.7907
160133,62.7907
160167,62.7907
160200,62.7907
160233,62.7907
160267,62.7907
160300,62.7907
160333,63.0
160367,63.0
160400,63.0
160433,63.0
160467,63.0
160500,62.7907
160700,62.7907
160733,62.7907
160767,62.7907
160800,62.7907
160833,62.7907
160867,62.7907
160900,62.7907
160933,62.7907
160967,62.7907
161000,62.7907
161033,62.7907
161067,62.7907
161100,62.7907
161133,62.7907
161167,62.7907
161200,63.63636
161233,63.63636
161267,63.63636
161300,63.63636
161333,63.63636
161367,63.63636
161400,63.63636
161433,63.15789
161467,63.15789
161500,63.15789
161533,63.15789
161567,63.15789
161600,63.15789
161633,63.15789
161667,63.15789
161700,63.15789
161733,63.15789
161767,63.15789
161800,63.15789
161833,63.15789
161867,63.15789
161900,63.15789
161933,63.15789
161967,63.15789
162000,63.15789
162033,63.15789
162067,63.95939
162100,63.95939
162133,63.95939
162167,63.95939
162200,63.95939
162233,63.95939
162267,63.95939
162300,63.95939
162333,62.7907
162367,62.7907
162400,62.7907
162433,62.7907
162467,62.7907
162500,62.7907
162533,62.7907
162567,62.7907
162600,62.7907
162633,62.7907
162667,62.7907
162700,62.7907
162733,62.7907
162767,62.7907
162800,62.7907
162833,62.7907
162867,64.28571
162900,64.28571
162933,64.28571
162967,64.28571
163000,64.28571
163033,64.28571
163067,64.28571
163100,64.28571
163133,64.28571
163167,65.45454000000001
163200,65.45454000000001
163233,65.45454000000001
163267,65.45454000000001
163300,65.45454000000001
163333,65.45454000000001
163367,65.45454000000001
163400,65.45454000000001
163433,65.45454000000001
163467,65.45454000000001
163500,65.45454000000001
163533,65.45454000000001
163567,65.45454000000001
163600,65.45454000000001
163633,65.45454000000001
163667,65.45454000000001
163700,65.45454000000001
163733,65.96859
163767,65.96859
163800,65.96859
163833,65.96859
163867,65.96859
163900,65.96859
163933,65.625
163967,65.625
164000,65.625
164033,65.625
164067,65.625
164100,65.625
164133,65.625
164167,65.625
164200,67.5
164233,67.5
164267,67.5
164300,67.5
164333,67.5
164367,67.5
164400,67.5
164433,67.5
164467,67.5
164500,67.5
164533,67.5
164567,67.5
164600,67.5
164633,67.5
164667,67.5
164700,67.02128
164733,67.02128
164767,66.66666
164800,66.66666
164833,66.66666
164867,66.66666
164900,66.66666
164933,66.66666
164967,66.66666
165000,66.66666
165033,66.66666
165067,66.66666
165100,66.66666
165133,66.66666
165167,66.66666
165200,66.66666
165233,66.66666
165267,67.5
165300,67.5
165333,67.5
165367,67.5
165400,67.5
165433,67.5
165467,67.5
165500,67.5
165533,67.5
165567,67.5
165600,67.5
165633,67.37968000000001
165667,67.37968000000001
165700,67.37968000000001
165733,67.37968000000001
165767,67.37968000000001
165800,67.37968000000001
165833,67.37968000000001
165867,67.37968000000001
165900,67.37968000000001
165933,67.37968000000001
165967,67.37968000000001
166000,67.37968000000001
166033,67.37968000000001
166067,67.37968000000001
166100,67.37968000000001
166133,67.37968000000001
166167,67.37968000000001
166200,67.37968000000001
166233,67.92453
166267,67.92453
166300,67.92453
166333,67.92453
166367,67.92453
166400,67.92453
166433,67.92453
166467,67.92453
166500,67.92453
166533,67.92453
166567,67.92453
166600,67.92453
166633,67.92453
166667,67.92453
166700,65.96859
166733,65.96859
166767,65.96859
166800,65.96859
166833,65.96859
166867,65.96859
166900,65.96859
166933,65.96859
166967,65.96859
167000,65.96859
167033,65.96859
167067,65.96859
167100,65.96859
167133,65.96859
167167,65.45454000000001
167200,65.45454000000001
167233,65.45454000000001
167267,65.45454000000001
167300,65.45454000000001
167333,65.45454000000001
167367,65.45454000000001
167400,65.45454000000001
167433,65.45454000000001
167467,65.45454000000001
167500,65.45454000000001
167533,65.45454000000001
167567,65.45454000000001
167600,65.45454000000001
167633,65.45454000000001
167667,64.94846
167700,64.94846
167767,64.94846
167800,64.94846
167833,64.94846
167867,64.94846
167900,64.94846
167933,64.94846
167967,64.94846
168000,64.94846
168033,63.905330000000006
168067,63.905330000000006
168100,63.905330000000006
168133,63.905330000000006
168167,63.905330000000006
168200,63.905330000000006
168233,63.905330000000006
168267,63.905330000000006
168300,63.905330000000006
168333,63.905330000000006
168367,63.905330000000006
168400,63.905330000000006
168433,63.905330000000006
168467,63.905330000000006
168500,63.905330000000006
168533,63.905330000000006
168567,63.905330000000006
168600,63.95939
168633,63.95939
168667,63.95939
168700,63.95939
168733,63.95939
168767,63.63636
168800,63.63636
168833,63.63636
168867,62.42775
168900,62.42775
168933,62.42775
168967,62.42775
169000,62.42775
169200,62.42775
169233,62.42775
169267,62.42775
169300,62.42775
169333,62.42775
169367,62.42775
169400,62.42775
169433,62.42775
169467,62.42775
169500,62.42775
169533,62.42775
169567,62.68657
169600,62.68657
169633,62.68657
169667,62.68657
169700,62.06896999999999
169733,62.06896999999999
169767,62.06896999999999
169800,62.06896999999999
169833,62.06896999999999
169867,62.06896999999999
169900,62.06896999999999
169933,62.06896999999999
169967,62.06896999999999
170000,62.06896999999999
170033,62.06896999999999
170067,62.06896999999999
170100,62.06896999999999
170133,62.06896999999999
170167,62.06896999999999
170200,62.06896999999999
170233,62.06896999999999
170267,62.06896999999999
170300,62.06896999999999
170333,62.06896999999999
170367,62.06896999999999
170400,62.06896999999999
170433,63.0
170467,63.0
170500,63.31658
170533,63.31658
170567,63.31658
170600,63.15789
170633,63.15789
170667,63.15789
170700,63.15789
170733,63.15789
170767,63.15789
170800,63.15789
170833,63.15789
170867,63.15789
170900,63.15789
170933,63.15789
170967,63.15789
171000,63.15789
171033,63.15789
171067,63.15789
171100,63.15789
171133,63.15789
171167,63.15789
171200,63.15789
171233,63.15789
171267,63.95939
171300,63.95939
171333,63.95939
171367,63.95939
171400,63.95939
171433,63.95939
171467,63.95939
171500,63.95939
171533,63.905330000000006
171567,63.905330000000006
171600,63.905330000000006
171633,63.905330000000006
171667,63.905330000000006
171700,63.905330000000006
171733,63.905330000000006
171767,63.905330000000006
171800,63.905330000000006
171833,63.905330000000006
171867,63.905330000000006
171900,63.905330000000006
171933,63.905330000000006
171967,63.905330000000006
172000,63.905330000000006
172033,63.905330000000006
172067,63.905330000000006
172100,63.905330000000006
172133,63.905330000000006
172167,63.905330000000006
172233,63.63636
172267,63.63636
172300,63.63636
172400,63.63636
172433,63.63636
172467,65.06024000000001
172500,65.06024000000001
172533,65.06024000000001
172567,65.06024000000001
172600,65.06024000000001
172633,65.06024000000001
172667,65.06024000000001
172700,65.06024000000001
172733,65.06024000000001
172767,65.06024000000001
172800,65.06024000000001
172833,65.06024000000001
172867,65.06024000000001
172900,65.06024000000001
172933,65.06024000000001
172967,65.06024000000001
173000,65.06024000000001
173033,65.06024000000001
173067,65.06024000000001
173100,65.06024000000001
173133,65.06024000000001
173167,65.06024000000001
173200,65.06024000000001
173233,64.28571
173267,64.28571
173300,64.28571
173333,63.95939
173367,64.28571
173400,64.28571
173433,64.28571
173467,64.28571
173500,64.67066
173533,64.67066
173567,64.67066
173600,64.67066
173633,64.67066
173667,64.67066
173700,64.67066
173733,64.67066
173767,64.67066
173800,64.67066
173833,64.67066
173867,65.06024000000001
173900,65.06024000000001
173933,65.06024000000001
173967,65.06024000000001
174000,65.06024000000001
174033,65.06024000000001
174067,65.625
174100,65.625
174133,65.625
174167,65.625
174200,65.625
174233,65.625
174267,65.625
174300,65.625
174333,65.625
174367,65.625
174400,65.625
174433,65.625
174467,65.625
174500,66.25766999999999
174533,66.25766999999999
174567,66.25766999999999
174600,66.25766999999999
174633,66.25766999999999
174667,66.25766999999999
174700,66.25766999999999
174733,66.25766999999999
174767,66.25766999999999
174800,66.25766999999999
174833,66.25766999999999
174867,66.25766999999999
174900,66.25766999999999
174933,66.25766999999999
174967,66.25766999999999
175000,66.25766999999999
175033,65.625
175067,65.625
175100,65.625
175133,65.625
175167,65.625
175200,65.625
175233,65.625
175267,65.625
175300,65.625
175333,65.625
175367,65.625
175400,65.625
175433,65.625
175467,66.25766999999999
175500,66.25766999999999
175533,66.25766999999999
175567,66.25766999999999
175600,66.25766999999999
175633,66.25766999999999
175667,66.25766999999999
175700,66.25766999999999
175733,66.25766999999999
175767,66.25766999999999
175800,66.25766999999999
175833,66.25766999999999
175867,66.25766999999999
175900,66.25766999999999
175933,66.25766999999999
175967,66.25766999999999
176000,66.25766999999999
176033,66.66666
176067,65.28497
176100,65.28497
176133,65.28497
176167,65.28497
176200,65.28497
176267,65.28497
176300,65.28497
176333,65.28497
176367,65.28497
176400,65.28497
176433,65.28497
176467,63.52941
176500,63.52941
176533,63.52941
176567,63.52941
176600,63.905330000000006
176633,63.905330000000006
176667,63.905330000000006
176700,63.905330000000006
176733,63.905330000000006
176767,63.905330000000006
176800,63.905330000000006
176833,63.905330000000006
176867,63.905330000000006
176900,63.905330000000006
176933,64.28571
176967,64.61539
177000,64.61539
177033,64.61539
177067,64.61539
177100,64.61539
177133,64.61539
177167,64.61539
177200,64.61539
177233,63.905330000000006
177267,63.905330000000006
177300,63.905330000000006
177333,63.905330000000006
177367,63.905330000000006
177400,63.905330000000006
177433,63.905330000000006
177466,63.905330000000006
177500,63.905330000000006
177533,63.905330000000006
177566,63.905330000000006
177600,63.905330000000006
177633,63.905330000000006
177666,63.905330000000006
177700,63.905330000000006
177733,63.905330000000006
177766,63.905330000000006
177800,63.905330000000006
177833,63.905330000000006
177866,63.905330000000006
177900,63.905330000000006
177933,63.905330000000006
177966,63.905330000000006
178000,63.905330000000006
178033,63.905330000000006
178066,63.905330000000006
178100,63.905330000000006
178133,63.905330000000006
178166,63.905330000000006
178200,63.905330000000006
178233,63.905330000000006
178266,63.905330000000006
178300,63.905330000000006
178333,63.905330000000006
178366,63.905330000000006
178400,63.905330000000006
178433,63.905330000000006
178466,63.905330000000006
178500,63.905330000000006
178533,63.905330000000006
178566,63.905330000000006
178600,63.905330000000006
178633,63.905330000000006
178666,63.905330000000006
178700,63.905330000000006
178733,63.905330000000006
178766,63.905330000000006
178800,63.905330000000006
178833,63.905330000000006
178866,63.905330000000006
178900,63.905330000000006
178933,63.905330000000006
178966,63.905330000000006
179000,63.905330000000006
179033,63.905330000000006
179066,63.905330000000006
179100,63.905330000000006
179133,63.905330000000006
179166,63.905330000000006
179200,63.905330000000006
179233,63.905330000000006
179266,63.905330000000006
179300,63.905330000000006
179333,63.905330000000006
179366,63.905330000000006
179400,63.905330000000006
179433,63.905330000000006
179466,63.905330000000006
179500,63.905330000000006
179533,63.905330000000006
179566,63.905330000000006
179600,63.905330000000006
179633,63.905330000000006
179666,63.905330000000006
179700,63.905330000000006
179733,63.905330000000006
179766,63.905330000000006
179800,63.905330000000006
179833,63.905330000000006
179866,63.905330000000006
179900,63.905330000000006
179933,63.905330000000006
179966,63.905330000000006
180000,63.905330000000006
180033,63.905330000000006
180066,63.905330000000006
180100,63.905330000000006
180133,63.905330000000006
180166,63.905330000000006
180200,63.905330000000006
180233,63.905330000000006
180266,63.905330000000006
180300,63.905330000000006
180333,63.905330000000006
180366,63.905330000000006
180400,63.905330000000006
180433,63.905330000000006
180466,63.905330000000006
180500,63.905330000000006
180533,63.905330000000006
180566,63.905330000000006
180600,63.905330000000006
180633,63.905330000000006
180666,63.905330000000006
180700,63.905330000000006
180733,63.905330000000006
180766,63.905330000000006
180800,63.905330000000006
180833,63.905330000000006
180866,63.905330000000006
180900,63.905330000000006
180933,63.905330000000006
180966,63.905330000000006
181000,63.905330000000006
181033,63.905330000000006
181066,63.905330000000006
181100,63.905330000000006
181133,63.905330000000006
181166,63.905330000000006
181200,63.905330000000006
181233,63.905330000000006
181266,63.905330000000006
181300,63.905330000000006
181333,63.905330000000006
181366,63.905330000000006
181400,63.905330000000006
181433,63.905330000000006
181466,63.905330000000006
181500,63.905330000000006
181533,63.905330000000006
181566,63.905330000000006
181600,63.905330000000006
181633,63.905330000000006
181666,63.905330000000006
181700,63.905330000000006
181733,63.905330000000006
181766,63.905330000000006
181800,63.905330000000006
181833,63.905330000000006
181866,63.905330000000006
181900,63.905330000000006
181933,63.905330000000006
181966,63.905330000000006
182000,63.905330000000006
182033,63.905330000000006
182066,63.905330000000006
182100,63.905330000000006
182133,63.905330000000006
182166,63.905330000000006
182200,63.905330000000006
182233,63.905330000000006
182266,63.905330000000006
182300,63.905330000000006
182333,63.905330000000006
182366,63.905330000000006
182400,63.905330000000006
182433,63.905330000000006
182466,63.905330000000006
182500,63.905330000000006
182533,63.905330000000006
182566,63.905330000000006
182600,63.905330000000006
182633,63.905330000000006
182666,63.905330000000006
182700,63.905330000000006
182733,63.905330000000006
182766,63.905330000000006
182800,63.905330000000006
182833,63.905330000000006
182866,63.905330000000006
182900,63.905330000000006
182933,63.905330000000006
182966,63.905330000000006
183000,63.905330000000006
183033,63.905330000000006
183066,63.905330000000006
183100,63.905330000000006
183133,63.905330000000006
183166,63.905330000000006
183200,63.905330000000006
183233,63.905330000000006
183266,63.905330000000006
183300,63.905330000000006
183333,63.905330000000006
183366,63.905330000000006
183400,63.905330000000006
183433,63.905330000000006
183466,63.905330000000006
183500,63.905330000000006
183533,63.905330000000006
183566,63.905330000000006
183600,63.905330000000006
183633,63.905330000000006
183666,63.905330000000006
183700,63.905330000000006
183733,63.905330000000006
183766,63.905330000000006
183800,63.905330000000006
183833,63.905330000000006
183866,63.905330000000006
183900,63.905330000000006
183933,63.905330000000006
183966,63.905330000000006
184000,63.905330000000006
184033,63.905330000000006
184066,63.905330000000006
184100,63.905330000000006
184133,63.905330000000006
184166,63.905330000000006
184200,63.905330000000006
184233,63.905330000000006
184266,63.905330000000006
