Time[ms],HR[bpm]
833,72.0
867,72.36180999999998
900,72.72726999999998
933,73.09644
967,71.18644
1000,71.59091
1033,71.59091
1067,81.81818
1100,91.52542
1133,91.52542
1167,93.75
1200,103.125
1233,103.125
1267,103.125
1300,103.125
1333,111.9171
1367,121.2435
1400,130.5699
1433,130.5699
1467,130.5699
1500,130.5699
1533,130.5699
1567,140.625
1600,140.625
1633,140.625
1667,140.625
1700,140.625
1733,140.625
1767,140.625
1800,140.625
1833,140.625
1867,140.625
1900,140.625
1933,140.625
1967,140.625
2000,140.0
2033,139.8964
2067,139.8964
2100,139.8964
2133,139.8964
2167,139.8964
2200,139.8964
2233,139.8964
2267,139.8964
2300,139.8964
2333,140.625
2367,140.625
2400,140.0
2433,140.0
2467,140.0
2500,140.0
2533,140.0
2567,136.3636
2600,136.3636
2633,136.3636
2667,136.3636
2700,136.3636
2733,136.3636
2767,136.3636
2800,135.4839
2833,135.4839
2867,135.4839
2900,135.4839
2933,135.4839
2967,136.3636
3000,136.3636
3033,136.3636
3067,136.3636
3100,136.3636
3133,136.3636
3167,136.3636
3200,135.4839
3233,135.4839
3267,135.4839
3300,135.4839
3333,135.4839
3367,136.3636
3400,136.3636
3433,136.3636
3467,136.3636
3500,136.3636
3533,136.3636
3567,136.3636
3600,135.4839
3633,135.4839
3667,135.4839
3700,135.4839
3733,135.4839
3767,135.4839
3800,137.0558
3833,137.0558
3867,137.0558
3900,137.0558
3933,137.0558
3967,137.0558
4000,136.2162
4033,136.2162
4067,138.4615
4100,138.4615
4133,138.4615
4167,138.4615
4200,138.4615
4233,138.4615
4267,138.4615
4300,138.4615
4333,138.4615
4367,138.4615
4400,136.2162
4433,136.2162
4467,139.1753
4500,139.1753
4533,139.1753
4567,139.1753
4600,139.1753
4633,139.1753
4667,139.1753
4700,139.1753
4733,148.3517
4767,148.3517
4800,148.3517
4833,148.3517
4867,148.3517
4900,148.3517
4933,148.3517
4967,148.3517
5000,148.3517
5033,138.4615
5067,138.4615
5100,139.8964
5133,139.8964
5167,139.8964
5200,139.8964
5233,139.8964
5267,139.8964
5300,139.8964
5333,139.8964
5367,139.8964
5400,139.8964
5433,139.8964
5467,141.1765
5500,142.1053
5533,142.1053
5567,142.1053
5600,142.1053
5633,142.1053
5667,142.1053
5700,142.1053
5733,142.1053
5767,142.1053
5800,142.1053
5833,143.2836
5867,143.2836
5900,143.2836
5933,143.2836
5967,143.61700000000005
6000,143.61700000000005
6033,143.61700000000005
6067,143.61700000000005
6100,143.61700000000005
6133,143.61700000000005
6167,143.61700000000005
6200,143.61700000000005
6233,143.61700000000005
6267,143.61700000000005
6300,142.5743
6333,142.5743
6367,142.5743
6400,141.3613
6433,141.3613
6467,141.3613
6500,141.3613
6533,141.3613
6567,141.3613
6600,141.3613
6633,141.3613
6667,141.3613
6700,141.3613
6733,141.1765
6767,140.625
6800,140.625
6833,140.625
6867,140.625
6900,140.625
6933,140.625
6967,140.625
7000,140.625
7033,150.0
7067,150.7853
7100,150.7853
7133,150.0
7167,150.0
7200,150.0
7233,150.0
7267,150.0
7300,150.0
7333,150.0
7367,150.0
7400,150.0
7433,150.0
7467,150.0
7500,150.0
7533,150.0
7567,150.0
7600,150.0
7633,150.0
7667,150.0
7700,150.0
7733,150.0
7767,150.0
7800,150.0
7833,150.0
7867,150.0
7900,150.0
7933,150.0
7967,150.0
8000,150.0
8033,150.0
8067,150.0
8100,150.0
8133,150.0
8167,150.7853
8200,141.3613
8233,141.3613
8267,141.3613
8300,141.3613
8333,141.3613
8367,141.3613
8400,140.625
8433,140.625
8467,140.625
8500,140.625
8533,140.625
8567,140.625
8600,140.625
8633,140.625
8667,140.625
8700,140.625
8733,140.625
8767,140.625
8800,141.1765
8833,144.385
8867,143.61700000000005
8900,143.61700000000005
8933,143.61700000000005
8967,143.61700000000005
9000,143.61700000000005
9033,143.61700000000005
9067,143.61700000000005
9100,143.61700000000005
9133,143.61700000000005
9167,143.61700000000005
9200,143.61700000000005
9233,143.61700000000005
9267,143.2836
9300,143.2836
9333,143.2836
9367,143.2836
9400,142.8571
9433,142.8571
9467,142.8571
9500,142.8571
9533,142.8571
9567,142.8571
9600,142.8571
9633,142.8571
9667,142.8571
9700,142.5743
9733,142.5743
9767,142.5743
9800,142.1053
9833,142.1053
9867,142.1053
9900,142.1053
9933,142.1053
9967,142.1053
10000,142.1053
10033,142.1053
10067,142.1053
10100,142.1053
10133,142.1053
10167,141.1765
10200,141.3613
10233,141.3613
10267,141.3613
10300,141.3613
10333,141.3613
10367,141.3613
10400,141.3613
10433,141.3613
10467,141.3613
10500,141.3613
10533,141.3613
10567,141.3613
10600,141.3613
10633,137.7049
10667,137.7049
10700,137.7049
10733,137.7049
10767,137.7049
10800,133.6634
10833,133.6634
10867,133.6634
10900,131.9372
10933,131.9372
10967,131.9372
11000,131.9372
11033,131.9372
11067,131.9372
11100,131.9372
11133,131.9372
11167,131.9372
11200,131.9372
11233,131.9372
11267,131.4607
11300,131.4607
11333,131.4607
11367,131.4607
11400,128.5714
11433,128.5714
11467,128.5714
11500,128.5714
11533,128.5714
11567,128.5714
11600,128.5714
11633,128.5714
11667,128.5714
11700,129.2308
11733,130.0
11767,130.0
11800,130.0
11833,130.5699
11867,130.5699
11900,130.5699
11933,130.5699
11967,130.5699
12000,130.5699
12033,130.5699
12067,130.5699
12100,130.5699
12133,130.5699
12167,130.5699
12200,130.5699
12233,130.7263
12267,131.25
12300,131.25
12333,131.25
12367,131.25
12400,131.25
12433,131.25
12467,131.25
12500,131.25
12533,131.25
12567,131.25
12600,131.25
12633,131.25
12667,131.25
12700,131.25
12733,131.25
12767,131.25
12800,131.25
12833,131.25
12867,131.25
12900,131.25
12933,131.25
12967,131.25
13000,131.25
13033,131.25
13067,131.25
13100,131.25
13133,130.5699
13167,130.5699
13200,130.5699
13233,130.5699
13267,130.5699
13300,130.5699
13333,130.5699
13367,130.5699
13400,130.5699
13433,130.5699
13467,130.5699
13500,132.3529
13533,131.9372
13567,131.9372
13600,131.9372
13633,131.9372
13667,131.9372
13700,131.9372
13733,131.9372
13767,131.9372
13800,135.0
13833,135.0
13867,135.0
13900,135.0
13933,135.0
13967,134.0426
14000,134.0426
14033,134.0426
14067,134.0426
14100,134.0426
14133,134.0426
14167,134.0426
14200,134.0426
14233,134.3284
14267,134.3284
14300,134.3284
14333,134.3284
14367,133.3333
14400,133.3333
14433,133.3333
14467,133.3333
14500,133.3333
14533,133.3333
14567,133.3333
14600,123.8095
14633,125.3731
14667,125.3731
14700,125.3731
14733,125.3731
14767,125.1337
14800,125.1337
14833,125.1337
14867,125.1337
14900,125.1337
14933,125.1337
14967,125.1337
15000,125.1337
15033,125.1337
15067,126.0
15100,126.0
15133,126.0
15167,126.0
15200,126.0
15233,125.1337
15267,125.1337
15300,125.1337
15333,125.1337
15367,125.1337
15400,125.1337
15433,125.1337
15467,125.1337
15500,126.0
15533,126.0
15567,126.0
15600,126.0
15633,126.0
15667,125.1337
15700,125.1337
15733,134.7594
15767,134.7594
15800,134.7594
15833,134.7594
15867,134.7594
15900,135.4839
15933,135.4839
15967,135.4839
16000,135.4839
16033,133.0049
16067,133.0049
16100,132.6316
16133,131.9372
16167,131.9372
16200,131.9372
16233,131.9372
16267,131.9372
16300,131.9372
16333,131.9372
16367,131.9372
16400,131.9372
16433,131.9372
16467,131.9372
16500,131.9372
16533,132.9545
16567,132.9545
16600,132.9545
16633,132.9545
16667,129.8969
16700,132.9545
16733,132.9545
16767,127.9188
16800,127.9188
16833,127.9188
16867,127.9188
16900,127.9188
16933,127.9188
16967,127.9188
17000,127.9188
17033,130.7263
17067,130.7263
17100,130.7263
17133,130.7263
17167,130.7263
17200,130.7263
17233,130.7263
17267,130.7263
17300,130.7263
17333,130.7263
17367,130.7263
17400,130.7263
17433,130.7263
17467,130.7263
17500,130.7263
17533,130.7263
17567,130.7263
17600,130.7263
17633,134.1615
17667,134.1615
17700,134.1615
17733,134.1615
17767,134.1615
17800,134.1615
17833,134.1615
17867,134.1615
17900,134.1615
17933,134.1615
17967,118.7817
18000,118.7817
18033,118.7817
18067,118.7817
18100,118.7817
18133,118.7817
18167,118.7817
18200,118.7817
18233,116.7568
18267,116.7568
18300,116.7568
18333,116.7568
18367,116.7568
18400,116.7568
18433,116.7568
18467,116.7568
18500,116.129
18533,106.4516
18567,106.4516
18600,104.7619
18633,104.7619
18667,104.7619
18700,104.7619
18733,95.2381
18767,95.2381
18800,95.2381
18833,95.2381
18867,95.2381
18900,95.2381
18933,95.2381
18967,95.2381
19000,95.2381
19033,95.2381
19067,95.2381
19100,90.50279
19133,90.50279
19167,90.50279
19200,90.50279
19233,90.50279
19267,90.50279
19300,90.50279
19333,89.55224
19367,89.55224
19400,89.55224
19433,89.55224
19467,92.04546
19500,92.04546
19533,92.04546
19567,92.04546
19600,92.04546
19633,92.04546
19667,92.04546
19700,92.04546
19733,92.04546
19767,92.04546
19800,92.04546
19833,92.04546
19867,92.04546
19900,92.04546
19933,81.81818
19967,81.81818
20000,81.81818
20033,82.23351
20067,82.23351
20100,82.23351
20133,82.23351
20167,82.23351
20200,82.23351
20233,82.23351
20267,82.23351
20300,77.00535
20333,77.00535
20367,77.00535
20400,77.00535
20433,77.00535
20467,77.00535
20500,77.00535
20533,77.00535
20567,77.00535
20600,77.00535
20633,73.25581
20667,73.25581
20700,73.25581
20733,73.25581
20767,73.25581
20800,73.25581
20833,73.25581
20867,73.09644
20900,73.09644
20933,73.09644
20967,73.09644
21000,72.36180999999998
21033,72.36180999999998
21067,72.36180999999998
21100,72.36180999999998
21133,74.55621
21167,74.55621
21200,74.55621
21233,74.55621
21267,74.55621
21300,76.05634
21333,76.05634
21367,69.23076999999999
21400,69.23076999999999
21433,69.23076999999999
21467,69.23076999999999
21500,69.23076999999999
21533,69.23076999999999
21567,69.23076999999999
21600,69.23076999999999
21633,69.23076999999999
21667,69.23076999999999
21700,69.23076999999999
21733,69.23076999999999
21767,69.23076999999999
21800,69.23076999999999
21833,69.23076999999999
21867,69.23076999999999
21900,69.23076999999999
21933,69.23076999999999
21967,69.23076999999999
22000,69.23076999999999
22033,69.23076999999999
22067,69.23076999999999
22100,69.23076999999999
22133,67.92453
22167,67.92453
22200,67.92453
22233,67.92453
22267,67.92453
22300,67.37968000000001
22333,67.37968000000001
22367,67.37968000000001
22400,67.37968000000001
22433,67.37968000000001
22467,67.37968000000001
22500,67.37968000000001
22533,67.37968000000001
22567,67.37968000000001
22600,67.37968000000001
22633,67.37968000000001
22667,67.37968000000001
22700,67.37968000000001
22733,67.37968000000001
22767,67.37968000000001
22800,67.37968000000001
22833,67.37968000000001
22867,67.37968000000001
22900,65.06024000000001
22933,65.06024000000001
22967,65.06024000000001
23000,65.06024000000001
23033,65.06024000000001
23067,65.06024000000001
23100,66.31579
23133,66.31579
23167,66.31579
23200,66.31579
23233,66.31579
23267,66.31579
23300,66.31579
23333,66.31579
23367,66.31579
23400,66.31579
23433,66.31579
23467,66.31579
23500,66.31579
23533,66.31579
23567,66.31579
23600,70.12987
23633,70.12987
23667,70.12987
23700,70.12987
23733,70.12987
23767,70.12987
23800,70.12987
23833,70.12987
23867,70.12987
23900,70.12987
23933,70.12987
23967,70.12987
24000,70.12987
24033,70.12987
24067,70.12987
24100,70.12987
24133,70.12987
24167,58.44156
24200,58.44156
24233,58.44156
24267,58.44156
24300,58.44156
24333,58.44156
24367,58.44156
24400,58.44156
24433,58.44156
24467,58.44156
24500,58.44156
24533,58.44156
24567,58.44156
24600,58.44156
24633,58.44156
24667,58.44156
24700,58.44156
24733,58.44156
24767,55.6701
24800,58.82353000000001
24833,58.82353000000001
24867,58.82353000000001
24900,58.82353000000001
24933,58.82353000000001
24967,58.82353000000001
25000,58.82353000000001
25033,58.82353000000001
25067,58.82353000000001
25100,58.82353000000001
25133,58.82353000000001
25167,58.82353000000001
25200,58.82353000000001
25233,58.82353000000001
25267,58.82353000000001
25300,58.82353000000001
25333,58.82353000000001
25367,61.36364
25400,61.36364
25433,61.71429000000001
25467,61.71429000000001
25500,61.71429000000001
25533,61.71429000000001
25567,61.71429000000001
25600,61.71429000000001
25633,61.71429000000001
25667,61.71429000000001
25700,61.71429000000001
25733,61.71429000000001
25767,61.71429000000001
25800,61.71429000000001
25833,61.71429000000001
25867,61.71429000000001
25900,61.71429000000001
25933,61.71429000000001
25967,61.71429000000001
26000,61.71429000000001
26033,62.68657
26067,63.0
26100,63.0
26133,63.0
26167,60.33519
26200,60.33519
26233,60.33519
26267,60.33519
26300,60.33519
26333,60.33519
26367,60.33519
26400,60.33519
26433,60.33519
26467,60.33519
26500,60.33519
26533,60.33519
26567,60.33519
26600,60.33519
26633,60.33519
26667,60.0
26700,60.0
26733,60.0
26767,60.0
26800,60.0
26833,60.0
26867,62.5
26900,62.5
26933,62.5
26967,62.5
27000,62.5
27033,62.5
27067,62.5
27100,62.5
27133,62.5
27167,62.5
27200,62.5
27233,62.5
27267,59.66851
27300,59.66851
27333,62.5
27367,62.5
27400,62.5
27433,62.5
27467,62.5
27500,62.5
27533,62.5
27567,56.84211
27600,56.84211
27633,56.84211
27667,56.84211
27700,56.84211
27733,56.84211
27767,56.84211
27800,56.84211
27833,56.84211
27867,56.84211
27900,56.84211
27933,56.84211
27967,56.84211
28000,56.84211
28033,57.69231
28067,57.69231
28100,57.69231
28133,57.69231
28167,57.69231
28200,57.69231
28233,57.69231
28267,62.06896999999999
28300,62.06896999999999
28333,62.06896999999999
28367,62.06896999999999
28400,62.06896999999999
28433,62.06896999999999
28467,62.06896999999999
28500,72.4138
28533,72.4138
28567,76.19048000000002
28600,76.19048000000002
28633,76.19048000000002
28667,76.19048000000002
28700,76.19048000000002
28733,76.19048000000002
28767,76.19048000000002
28800,76.19048000000002
28833,76.19048000000002
28867,76.19048000000002
28900,85.71429
28933,85.71429
28967,85.71429
29000,85.71429
29033,86.17021
29067,86.17021
29100,86.17021
29133,87.80488000000004
29167,87.80488000000004
29200,76.82927
29233,76.82927
29267,77.83784
29300,77.83784
29333,77.83784
29367,77.83784
29400,77.83784
29433,77.83784
29467,77.83784
29500,77.83784
29533,77.83784
29567,77.83784
29600,77.83784
29633,77.83784
29667,77.83784
29700,77.83784
29733,77.83784
29767,77.83784
29800,77.83784
29833,77.83784
29867,77.83784
29900,77.83784
29933,78.26087
29967,78.26087
30000,78.26087
30033,78.26087
30067,77.83784
30100,77.83784
30133,77.83784
30167,77.83784
30200,77.83784
30233,77.83784
30267,77.83784
30300,87.56756999999998
30333,87.56756999999998
30367,87.56756999999998
30400,87.56756999999998
30433,87.56756999999998
30467,87.56756999999998
30500,87.56756999999998
30533,88.66995
30567,88.66995
30600,88.04348
30633,88.04348
30667,88.04348
30700,88.04348
30733,88.04348
30767,88.04348
30800,88.04348
30833,88.04348
30867,88.04348
30900,88.04348
30933,88.04348
30967,88.04348
31000,88.04348
31033,88.04348
31067,88.04348
31100,88.04348
31133,88.04348
31167,88.04348
31200,88.23529
31233,88.04348
31267,88.04348
31300,88.04348
31333,88.04348
31367,88.04348
31400,88.04348
31433,88.04348
31467,88.04348
31500,88.04348
31533,88.04348
31567,88.04348
31600,87.56756999999998
31633,87.56756999999998
31667,87.56756999999998
31700,87.56756999999998
31733,87.56756999999998
31767,87.56756999999998
31800,88.66995
31833,88.66995
31867,94.73684
31900,94.73684
31933,94.73684
31967,94.73684
32000,94.73684
32033,94.73684
32067,94.73684
32100,94.73684
32133,94.73684
32167,94.73684
32200,94.73684
32233,94.73684
32267,94.73684
32300,94.73684
32333,94.73684
32367,94.73684
32400,94.73684
32433,94.73684
32467,94.73684
32500,96.25668
32533,96.25668
32567,96.25668
32600,96.25668
32633,96.25668
32667,96.25668
32700,96.25668
32733,96.25668
32767,96.25668
32800,96.25668
32833,96.25668
32867,96.25668
32900,96.25668
32933,98.36066
32967,98.36066
33000,98.36066
33033,98.36066
33067,98.36066
33100,98.36066
33133,98.36066
33167,98.36066
33200,98.36066
33233,98.36066
33267,98.36066
33300,98.36066
33333,98.36066
33367,98.36066
33400,98.36066
33433,98.36066
33467,98.36066
33500,98.36066
33533,98.36066
33567,98.36066
33600,97.53695
33633,97.53695
33667,97.29729
33700,97.29729
33733,97.29729
33767,97.29729
33800,97.29729
33833,97.29729
33867,97.29729
33900,97.29729
33933,97.29729
33967,97.29729
34000,97.29729
34033,97.29729
34067,97.29729
34100,97.29729
34133,97.29729
34167,97.29729
34200,97.29729
34233,97.29729
34267,96.42857
34300,96.42857
34333,96.42857
34367,96.42857
34400,96.42857
34433,96.42857
34467,96.42857
34500,96.42857
34533,96.42857
34567,96.42857
34600,96.42857
34633,96.42857
34667,96.42857
34700,96.42857
34733,96.42857
34767,90.90909
34800,90.90909
34833,90.0
34867,90.0
34900,90.0
34933,90.0
34967,90.0
35000,90.0
35033,90.0
35067,90.0
35100,90.0
35133,90.0
35167,90.0
35200,90.0
35233,90.0
35267,90.0
35300,90.0
35333,90.0
35367,90.45226
35400,90.45226
35433,91.01124
35467,91.01124
35500,91.01124
35533,91.01124
35567,91.01124
35600,91.01124
35633,91.01124
35667,91.01124
35700,91.01124
35733,91.01124
35767,91.01124
35800,91.01124
35833,91.01124
35867,91.01124
35900,91.01124
35933,91.01124
35967,91.01124
36000,91.01124
36033,91.01124
36067,91.01124
36100,88.23529
36133,87.56756999999998
36167,87.56756999999998
36200,87.56756999999998
36233,87.56756999999998
36267,87.56756999999998
36300,87.56756999999998
36333,87.56756999999998
36367,87.56756999999998
36400,87.56756999999998
36433,87.56756999999998
36467,87.56756999999998
36500,87.56756999999998
36533,87.56756999999998
36567,87.56756999999998
36600,87.56756999999998
36633,87.56756999999998
36667,87.56756999999998
36700,87.56756999999998
36733,89.55224
36767,88.52459
36800,88.52459
36833,88.52459
36867,88.52459
36900,88.52459
36933,88.52459
36967,88.52459
37000,88.52459
37033,88.52459
37067,88.52459
37100,88.52459
37133,88.52459
37167,90.45226
37200,90.45226
37233,90.45226
37267,90.45226
37300,90.45226
37333,90.45226
37367,90.50279
37400,90.50279
37433,90.50279
37467,90.50279
37500,90.50279
37533,90.50279
37567,90.50279
37600,90.50279
37633,90.50279
37667,90.50279
37700,90.50279
37733,90.50279
37767,91.37056
37800,90.90909
37833,90.90909
37867,90.90909
37900,90.90909
37933,90.90909
37967,90.90909
38000,91.37056
38033,90.50279
38067,90.50279
38100,90.50279
38133,90.50279
38167,90.50279
38200,90.50279
38233,90.50279
38267,90.50279
38300,90.50279
38333,90.50279
38367,90.50279
38400,90.50279
38433,90.45226
38467,90.45226
38500,90.45226
38533,90.45226
38567,90.45226
38600,90.45226
38633,88.52459
38667,88.52459
38700,88.52459
38733,88.52459
38767,88.52459
38800,88.52459
38833,88.52459
38867,88.52459
38900,88.52459
38933,88.52459
38967,88.52459
39000,90.0
39033,90.0
39067,90.0
39100,90.0
39133,90.0
39167,89.01099
39200,89.01099
39233,89.01099
39267,89.01099
39300,89.01099
39333,89.01099
39367,89.01099
39400,98.9011
39433,98.9011
39467,98.9011
39500,98.9011
39533,98.9011
39567,98.9011
39600,98.9011
39633,98.9011
39667,99.49749
39700,99.49749
39733,99.49749
39767,100.5587
39800,100.5587
39833,100.5587
39867,100.5587
39900,100.5587
39933,100.5587
39967,100.5587
40000,100.5587
40033,100.5587
40067,100.5587
40100,101.5385
40133,101.5385
40167,101.5385
40200,101.5385
40233,101.5385
40267,101.5385
40300,101.5385
40333,101.5385
40367,101.5385
40400,101.5385
40433,101.1236
40467,101.1236
40500,101.1236
40533,101.1236
40567,101.1236
40600,101.1236
40633,101.1236
40667,101.1236
40700,101.1236
40733,101.1236
40767,101.1236
40800,101.1236
40833,101.1236
40867,98.50746
40900,98.50746
40933,98.50746
40967,98.50746
41000,96.25668
41033,96.25668
41067,96.25668
41100,96.25668
41133,96.25668
41167,96.25668
41200,96.25668
41233,96.25668
41267,96.25668
41300,96.25668
41333,96.25668
41367,96.25668
41400,96.25668
41433,96.25668
41467,97.00599
41500,97.00599
41533,97.00599
41567,97.00599
41600,97.00599
41633,97.00599
41667,97.00599
41700,97.00599
41733,97.00599
41767,92.78351
41800,92.78351
41833,92.78351
41867,92.78351
41900,92.78351
41933,92.78351
41967,92.78351
42000,92.78351
42033,92.78351
42067,92.78351
42100,92.78351
42133,94.18604
42167,94.18604
42200,94.18604
42233,94.18604
42267,94.18604
42300,94.18604
42333,94.18604
42367,94.18604
42400,94.24084
42433,94.24084
42467,94.24084
42500,94.24084
42533,94.24084
42567,94.24084
42600,94.24084
42633,94.24084
42667,94.24084
42700,94.24084
42733,94.24084
42767,94.24084
42800,94.24084
42833,94.24084
42867,93.10345
42900,93.10345
42933,93.10345
42967,94.24084
43000,94.24084
43033,94.24084
43067,94.24084
43100,94.24084
43133,94.24084
43167,94.24084
43200,94.24084
43233,94.24084
43267,94.24084
43300,94.24084
43333,94.24084
43367,94.24084
43400,94.24084
43433,93.10345
43467,93.10345
43500,93.10345
43533,94.24084
43567,94.24084
43600,94.24084
43633,94.24084
43667,94.24084
43700,94.24084
43733,94.24084
43767,94.24084
43800,94.24084
43833,94.24084
43867,94.24084
43900,94.24084
43933,94.24084
43967,94.24084
44000,93.10345
44033,93.10345
44067,93.10345
44100,93.10345
44133,93.75
44167,93.75
44200,93.75
44233,93.75
44267,93.75
44300,93.75
44333,93.75
44367,93.75
44400,93.75
44433,93.75
44467,93.75
44500,93.75
44533,93.75
44567,94.73684
44600,94.73684
44633,94.73684
44667,94.73684
44700,94.73684
44733,95.2381
44767,95.2381
44800,95.2381
44833,95.2381
44867,95.2381
44900,95.2381
44933,95.2381
44967,95.2381
45000,95.2381
45033,95.2381
45067,95.2381
45100,95.2381
45133,95.2381
45167,95.2381
45200,95.2381
45233,95.2381
45267,94.18604
45300,94.18604
45333,94.18604
45367,94.18604
45400,94.18604
45433,93.26425
45467,93.26425
45500,93.26425
45533,93.26425
45567,93.26425
45600,93.26425
45633,93.26425
45667,93.26425
45700,93.26425
45733,93.26425
45767,93.26425
45800,93.26425
45833,92.04546
45867,92.04546
45900,92.04546
45933,92.04546
45967,92.04546
46000,93.26425
46033,93.26425
46067,93.26425
46100,93.26425
46133,93.26425
46167,93.26425
46200,93.26425
46233,93.26425
46267,93.26425
46300,93.26425
46333,93.26425
46367,93.26425
46400,91.52542
46433,91.52542
46467,91.52542
46500,91.52542
46533,91.52542
46567,91.52542
46600,91.52542
46633,92.30769
46667,92.30769
46700,92.30769
46733,92.30769
46767,92.30769
46800,92.30769
46833,92.30769
46867,92.78351
46900,92.78351
46933,94.73684
46967,94.73684
47000,100.0
47033,100.0
47067,100.0
47100,100.0
47133,100.0
47167,100.5587
47200,100.5587
47233,100.5587
47267,100.5587
47300,100.5587
47333,102.0619
47367,101.0204
47400,101.0204
47433,101.0204
47467,101.0204
47500,101.0204
47533,101.0204
47567,101.0204
47600,101.0204
47633,107.7844
47667,107.7844
47700,113.6842
47733,113.6842
47767,113.6842
47800,113.6842
47833,113.6842
47867,114.2857
47900,114.2857
47933,114.2857
47967,114.2857
48000,114.2857
48033,117.5879
48067,117.5879
48100,117.5879
48133,117.5879
48167,117.5879
48200,117.5879
48233,114.8936
48267,114.8936
48300,114.8936
48333,114.8936
48367,127.2727
48400,127.2727
48433,127.2727
48467,127.2727
48500,127.2727
48533,127.2727
48567,127.2727
48600,130.7263
48633,130.7263
48667,130.7263
48700,133.3333
48733,133.3333
48767,133.3333
48800,142.8571
48833,142.8571
48867,142.8571
48900,142.8571
48933,152.381
48967,152.381
49000,152.381
49033,152.381
49067,152.381
49100,152.381
49133,152.2388
49167,143.2836
49200,143.2836
49233,146.7391
49267,146.7391
49300,146.7391
49333,146.7391
49367,146.7391
49400,146.7391
49433,146.7391
49467,146.7391
49500,146.7391
49533,146.7391
49567,146.7391
49600,146.7391
49633,146.7391
49667,136.9565
49700,127.1739
49733,127.1739
49767,124.7525
49800,126.4865
49833,126.4865
49867,126.4865
49900,126.4865
49933,116.7568
49967,116.7568
50000,116.7568
50033,116.7568
50067,126.4865
50100,126.4865
50133,126.4865
50167,126.4865
50200,126.4865
50233,116.7568
50267,116.7568
50300,116.7568
50333,116.7568
50367,116.7568
50400,116.7568
50433,116.7568
50467,116.7568
50500,116.129
50533,106.4516
50567,106.4516
50600,106.4516
50633,106.4516
50667,106.4516
50700,106.4516
50733,106.4516
50767,106.4516
50800,96.77419
50833,96.77419
50867,96.77419
50900,96.77419
50933,96.77419
50967,96.77419
51000,100.6211
51033,89.44099
51067,89.44099
51100,89.44099
51133,89.44099
51167,87.56756999999998
51200,87.56756999999998
51233,87.56756999999998
51267,87.56756999999998
51300,87.56756999999998
51333,87.56756999999998
51367,87.56756999999998
51400,87.56756999999998
51433,87.56756999999998
51467,87.56756999999998
51500,87.56756999999998
51533,87.56756999999998
51567,87.56756999999998
51600,87.56756999999998
51633,87.56756999999998
51667,87.56756999999998
51700,87.56756999999998
51733,87.56756999999998
51767,87.56756999999998
51800,87.56756999999998
51833,82.28571
51867,82.28571
51900,82.28571
51933,82.28571
51967,82.28571
52000,82.28571
52033,82.28571
52067,80.19802
52100,80.19802
52133,80.19802
52167,78.68852
52200,78.68852
52233,78.68852
52267,78.68852
52300,78.68852
52333,78.68852
52367,78.68852
52400,78.68852
52433,78.68852
52467,78.68852
52500,78.68852
52533,78.68852
52567,78.68852
52600,78.68852
52633,78.68852
52667,78.68852
52700,80.0
52733,80.0
52767,80.0
52800,78.75
52833,77.41936
52867,87.09676999999998
52900,87.09676999999998
52933,85.71429
52967,85.26316
53000,85.26316
53033,85.26316
53067,85.26316
53100,85.26316
53133,85.26316
53167,85.26316
53200,85.26316
53233,85.26316
53267,85.26316
53300,85.26316
53333,85.26316
53367,88.66995
53400,88.66995
53433,90.50279
53467,90.50279
53500,91.01124
53533,91.01124
53567,91.01124
53600,91.01124
53633,91.01124
53667,91.01124
53700,91.01124
53733,91.01124
53767,91.01124
53800,91.01124
53833,93.75
53867,93.75
53900,93.75
53933,93.75
53967,93.75
54000,103.6649
54033,103.6649
54067,103.6649
54100,103.6649
54133,103.6649
54167,103.6649
54200,103.6649
54233,103.6649
54267,114.7059
54300,116.129
54333,116.129
54367,116.129
54400,116.129
54433,116.129
54467,116.129
54500,116.129
54533,116.129
54567,116.129
54600,116.129
54633,116.129
54667,116.129
54700,116.129
54733,116.129
54767,116.129
54800,116.129
54833,116.129
54867,116.129
54900,112.5
54933,110.2041
54967,110.2041
55000,119.3878
55033,119.3878
55067,119.3878
55100,119.3878
55133,119.3878
55167,119.3878
55200,119.3878
55233,123.4286
55267,123.4286
55300,123.4286
55333,123.4286
55367,123.4286
55400,123.8095
55433,123.8095
55467,123.8095
55500,123.8095
55533,123.8095
55567,123.8095
55600,123.8095
55633,123.8095
55667,123.8095
55700,123.8095
55733,123.8095
55767,123.8095
55800,123.8095
55833,123.8095
55867,123.8095
55900,123.5294
55933,122.5131
55967,122.5131
56000,122.5131
56033,122.5131
56067,122.5131
56100,122.5131
56133,122.5131
56167,122.5131
56200,126.0
56233,126.0
56267,126.0
56300,126.0
56333,126.0
56367,125.1337
56400,125.1337
56433,125.1337
56467,125.1337
56500,125.1337
56533,125.1337
56567,125.1337
56600,115.508
56633,117.0
56667,117.0
56700,117.0
56733,117.0
56767,117.0
56800,116.129
56833,116.129
56867,116.129
56900,116.129
56933,116.129
56967,116.129
57000,116.129
57033,116.129
57067,116.129
57100,117.0
57133,117.0
57167,117.0
57200,117.0
57233,117.0
57267,117.3913
57300,117.3913
57333,117.3913
57367,117.3913
57400,116.7568
57433,116.7568
57467,116.7568
57500,116.7568
57533,116.7568
57567,117.5879
57600,117.5879
57633,117.5879
57667,117.5879
57700,117.5879
57733,117.5879
57767,117.3913
57800,117.3913
57833,117.3913
57867,117.3913
57900,117.3913
57933,117.3913
57967,117.3913
58000,117.3913
58033,117.3913
58067,117.3913
58100,117.3913
58133,117.3913
58167,117.3913
58200,117.3913
58233,117.3913
58267,112.5
58300,112.5
58333,112.5
58367,112.5
58400,112.5
58433,115.7895
58467,109.0909
58500,115.7895
58533,115.7895
58567,115.7895
58600,115.7895
58633,115.7895
58667,115.7895
58700,103.6649
58733,103.6649
58767,103.6649
58800,103.6649
58833,103.6649
58867,103.6649
58900,103.6649
58933,103.6649
58967,103.6649
59000,103.6649
59033,103.6649
59067,103.6649
59100,103.6649
59133,103.6649
59167,104.0462
59200,104.0462
59233,104.0462
59267,104.0462
59300,104.0462
59333,104.0462
59367,104.0462
59400,104.0462
59433,104.0462
59467,104.0462
59500,104.0462
59533,104.0462
59567,104.0462
59600,104.0462
59633,104.0462
59667,104.0462
59700,104.0462
59733,104.0462
59767,101.25
59800,100.6211
59833,100.6211
59867,100.6211
59900,100.6211
59933,100.6211
59967,100.6211
60000,100.6211
60033,100.6211
60067,100.6211
60100,100.6211
60133,101.25
60167,101.25
60200,97.95918
60233,97.95918
60267,97.95918
60300,97.95918
60333,73.84615
60367,73.84615
60400,73.84615
60433,73.84615
60467,73.84615
60500,73.84615
60533,73.84615
60567,73.84615
60600,73.84615
60633,73.84615
60667,69.23076999999999
60700,69.23076999999999
60733,69.23076999999999
60767,69.23076999999999
60800,69.23076999999999
60833,69.23076999999999
60867,69.23076999999999
60900,69.23076999999999
60933,69.23076999999999
60967,69.23076999999999
61000,69.23076999999999
61033,69.23076999999999
61067,69.23076999999999
61100,67.08074
61133,67.08074
61167,67.08074
61200,67.08074
61233,67.08074
61267,67.08074
61300,67.08074
61333,67.08074
61367,67.08074
61400,55.95855
61433,55.95855
61467,55.95855
61500,55.95855
61533,55.95855
61567,55.95855
61600,55.95855
61633,55.95855
61667,55.95855
61700,55.95855
61733,55.95855
61767,55.95855
61800,50.0
61833,50.0
61867,50.0
61900,50.0
61933,50.0
61967,50.0
62000,50.0
62033,50.0
62067,50.0
62100,50.0
62133,50.0
62167,50.0
62200,50.0
62233,46.45161
62267,46.45161
62300,46.45161
62333,46.45161
62367,46.45161
62400,46.45161
62433,46.45161
62467,48.12834
62500,48.12834
62533,48.12834
62567,48.12834
62600,48.12834
62633,48.12834
62667,48.12834
62700,48.12834
62733,48.12834
62767,48.12834
62800,48.12834
62833,48.12834
62867,48.12834
62900,48.12834
62933,48.12834
62967,48.12834
63000,48.12834
63033,48.12834
63067,48.32215
63100,48.32215
63133,48.32215
63167,48.32215
63200,48.32215
63233,48.32215
63267,48.32215
63300,48.32215
63333,48.32215
63367,48.32215
63400,48.32215
63433,48.32215
63467,48.32215
63500,48.32215
63533,48.32215
63567,48.32215
63600,48.32215
63633,48.91304
63667,48.91304
63700,48.91304
63733,48.91304
63767,48.91304
63800,48.91304
63833,48.91304
63867,48.91304
63900,48.91304
63933,48.91304
63967,48.91304
64000,48.91304
64033,48.91304
64067,48.91304
64100,48.91304
64133,48.91304
64167,48.91304
64200,48.91304
64233,48.91304
64267,48.91304
64300,48.91304
64333,48.97959
64367,48.97959
64400,48.97959
64433,48.97959
64467,48.97959
64500,48.97959
64533,48.97959
64567,48.97959
64600,48.97959
64633,48.97959
64667,48.97959
64700,48.97959
64733,48.97959
64767,48.97959
64800,48.97959
64833,48.97959
64867,48.97959
64900,48.97959
64933,48.97959
64967,48.97959
65000,48.97959
65033,48.97959
65067,48.97959
65100,47.12042
65133,47.12042
65167,47.12042
65200,47.12042
65233,47.12042
65267,47.12042
65300,47.12042
65333,47.12042
65367,47.12042
65400,47.12042
65433,47.12042
65467,47.12042
65500,47.12042
65533,47.12042
65567,50.34965
65600,50.34965
65633,50.34965
65667,50.34965
65700,50.34965
65733,50.34965
65767,50.34965
65800,50.34965
65833,50.34965
65867,50.34965
65900,50.34965
65933,50.34965
65967,50.34965
66000,50.34965
66033,50.34965
66067,50.34965
66100,50.34965
66133,50.34965
66167,52.94118
66200,52.94118
66233,52.94118
66267,52.94118
66300,52.94118
66333,52.94118
66367,52.94118
66400,52.94118
66433,52.94118
66467,52.94118
66500,52.94118
66533,52.94118
66567,52.94118
66600,52.94118
66633,52.94118
66667,52.94118
66700,53.25444
66733,53.25444
66767,53.25444
66800,53.25444
66833,53.25444
66867,55.10204
66900,55.10204
66933,55.10204
66967,55.10204
67000,55.10204
67033,55.10204
67067,55.10204
67100,55.10204
67133,55.10204
67167,54.87805
67200,55.21473
67233,55.21473
67267,55.21473
67300,55.21473
67333,55.21473
67367,55.21473
67400,55.21473
67433,55.21473
67467,55.21473
67500,55.21473
67533,55.21473
67567,55.21473
67600,55.21473
67633,55.21473
67667,55.21473
67700,55.21473
67733,55.21473
67767,55.21473
67800,55.21473
67833,55.21473
67867,55.21473
67900,55.21473
67933,55.21473
67967,54.87805
68000,54.87805
68033,54.87805
68067,54.87805
68100,54.87805
68133,54.87805
68167,54.87805
68200,54.87805
68233,54.54546
68267,54.54546
68300,54.54546
68333,54.54546
68367,54.54546
68400,54.54546
68433,54.961830000000006
68467,54.961830000000006
68500,54.961830000000006
68533,54.961830000000006
68567,54.961830000000006
68600,54.961830000000006
68633,54.961830000000006
68667,54.961830000000006
68700,54.961830000000006
68733,54.961830000000006
68767,54.961830000000006
68800,54.961830000000006
68833,54.961830000000006
68867,54.961830000000006
68900,54.961830000000006
68933,54.961830000000006
68967,54.961830000000006
69000,54.961830000000006
69033,54.961830000000006
69067,54.961830000000006
69100,45.45454
69133,45.45454
69167,45.45454
69200,45.45454
69233,45.45454
69267,45.22613
69300,43.90244000000001
69333,43.90244000000001
69367,43.90244000000001
69400,43.90244000000001
69433,43.90244000000001
69467,43.90244000000001
69500,43.90244000000001
69533,43.90244000000001
69567,43.90244000000001
69600,43.90244000000001
69633,43.90244000000001
69667,43.90244000000001
69700,43.90244000000001
69733,43.90244000000001
69767,43.90244000000001
69800,43.90244000000001
69833,43.90244000000001
69867,43.90244000000001
69900,43.90244000000001
69933,43.90244000000001
69967,43.90244000000001
70000,43.90244000000001
70033,43.90244000000001
70067,43.90244000000001
70100,43.90244000000001
70133,46.15385
70167,46.39175
70200,46.39175
70233,55.38462
70267,55.38462
70300,55.38462
70333,55.38462
70367,55.38462
70400,55.38462
70433,55.38462
70467,60.0
70500,60.0
70533,60.0
70567,60.0
70600,60.0
70633,60.0
70667,60.0
70700,60.0
70733,60.0
70767,60.0
70800,60.0
70833,60.0
70867,64.67066
70900,64.67066
70933,64.67066
70967,64.67066
71000,64.67066
71033,64.67066
71067,64.67066
71100,64.67066
71133,64.67066
71167,64.67066
71200,64.67066
71233,64.67066
71267,64.67066
71300,64.67066
71333,64.67066
71367,64.67066
71400,64.67066
71433,60.0
71467,60.0
71500,56.5445
71533,56.5445
71567,56.5445
71600,65.96859
71633,65.96859
71667,65.96859
71700,65.96859
71733,65.96859
71767,65.96859
71800,65.96859
71833,65.96859
71867,65.96859
71900,65.625
71933,65.28497
71967,64.28571
72000,64.28571
72033,64.28571
72067,64.28571
72100,64.28571
72133,64.28571
72167,64.28571
72200,64.28571
72233,64.28571
72267,64.28571
72300,64.28571
72333,64.28571
72367,64.28571
72400,64.28571
72433,64.28571
72467,64.28571
72500,64.28571
72533,64.28571
72567,64.28571
72600,64.28571
72633,64.28571
72667,64.28571
72700,64.28571
72733,64.28571
72767,64.28571
72800,63.380280000000006
72833,63.380280000000006
72867,50.70422
72900,50.70422
72933,49.18033
72967,50.70422
73000,50.70422
73033,48.3871
73067,48.3871
73100,48.3871
73133,48.3871
73167,48.3871
73200,48.3871
73233,48.3871
73267,48.3871
73300,48.3871
73333,48.3871
73367,48.3871
73400,48.3871
73433,48.3871
73467,48.3871
73500,48.3871
73533,48.3871
73567,48.3871
73600,48.3871
73633,48.3871
73667,54.21686999999999
73700,54.21686999999999
73733,54.21686999999999
73767,54.21686999999999
73800,54.21686999999999
73833,54.21686999999999
73867,54.21686999999999
73900,54.21686999999999
73933,55.95855
73967,55.95855
74000,55.95855
74033,55.95855
74067,55.95855
74100,56.25
74133,56.25
74167,56.25
74200,56.25
74233,56.25
74267,56.25
74300,56.25
74333,56.5445
74367,68.35443000000001
74400,68.35443000000001
74433,68.35443000000001
74467,68.35443000000001
74500,68.35443000000001
74533,68.35443000000001
74567,68.35443000000001
74600,68.35443000000001
74633,68.35443000000001
74667,68.35443000000001
74700,68.35443000000001
74733,68.35443000000001
74767,79.74683
74800,79.74683
74833,79.74683
74867,79.74683
74900,83.23699
74933,83.72093000000002
74967,85.26316
75000,85.26316
75033,85.26316
75067,85.26316
75100,85.26316
75133,85.26316
75167,85.26316
75200,85.26316
75233,85.26316
75267,85.26316
75300,85.26316
75333,85.26316
75367,85.26316
75400,85.26316
75433,88.23529
75467,85.26316
75500,85.26316
75533,85.26316
75567,94.73684
75600,94.73684
75633,104.2105
75667,104.2105
75700,104.2105
75733,104.2105
75767,104.2105
75800,104.2105
75833,104.2105
75867,104.2105
75900,105.8824
75933,116.4706
75967,116.4706
76000,116.4706
76033,116.4706
76067,116.4706
76100,116.4706
76133,116.4706
76167,116.4706
76200,116.4706
76233,116.4706
76267,116.4706
76300,116.4706
76333,116.4706
76367,117.3913
76400,117.3913
76433,117.3913
76467,117.3913
76500,117.3913
76533,117.3913
76567,117.3913
76600,117.3913
76633,117.3913
76667,117.3913
76700,117.3913
76733,117.3913
76767,117.3913
76800,117.3913
76833,117.3913
76867,117.5879
76900,117.5879
76933,117.5879
76967,117.5879
77000,117.5879
77033,117.5879
77067,116.129
77100,116.129
77133,116.129
77167,116.129
77200,116.129
77233,116.129
77267,116.129
77300,117.5879
77333,117.5879
77367,117.5879
77400,117.5879
77433,117.5879
77467,117.5879
77500,116.129
77533,116.129
77567,116.129
77600,116.129
77633,116.129
77667,116.129
77700,116.129
77733,116.129
77767,116.129
77800,116.129
77833,116.129
77867,116.129
77900,116.4179
77933,115.508
77967,115.508
78000,115.508
78033,116.129
78067,116.129
78100,116.129
78133,116.129
78167,116.129
78200,117.5879
78233,117.5879
78267,117.0
78300,117.0
78333,117.0
78367,117.0
78400,115.508
78433,115.508
78467,115.508
78500,115.508
78533,115.508
78567,115.508
78600,115.508
78633,115.508
78667,115.508
78700,115.508
78733,115.8416
78767,115.8416
78800,115.8416
78833,123.4286
78867,123.4286
78900,123.4286
78933,123.4286
78967,123.4286
79000,123.4286
79033,123.4286
79067,123.4286
79100,123.4286
79133,123.4286
79167,123.4286
79200,123.4286
79233,123.1579
79267,123.1579
79300,123.1579
79333,123.1579
79367,123.1579
79400,123.1579
79433,123.1579
79467,123.1579
79500,123.1579
79533,123.1579
79567,123.1579
79600,123.1579
79633,123.1579
79667,123.1579
79700,123.1579
79733,124.1379
79767,123.1579
79800,123.1579
79833,123.1579
79867,123.1579
79900,123.1579
79933,123.1579
79967,123.1579
80000,123.1579
80033,123.1579
80067,123.1579
80100,123.1579
80133,123.1579
80167,123.1579
80200,123.1579
80233,123.1579
80267,122.5131
80300,122.5131
80333,122.5131
80367,122.5131
80400,122.5131
80433,122.5131
80467,122.5131
80500,122.5131
80533,122.5131
80567,122.5131
80600,122.5131
80633,122.5131
80667,122.5131
80700,122.5131
80733,122.5131
80767,122.5131
80800,122.5131
80833,122.5131
80867,122.5131
80900,122.5131
80933,122.5131
80967,122.5131
81000,122.5131
81033,122.5131
81067,122.5131
81100,122.5131
81133,122.5131
81167,122.5131
81200,124.8555
81233,124.4681
81267,124.4681
81300,124.4681
81333,124.4681
81367,124.4681
81400,124.4681
81433,124.4681
81467,124.4681
81500,124.4681
81533,124.4681
81567,124.4681
81600,124.4681
81633,124.4681
81667,124.4681
81700,124.7525
81733,124.7525
81767,124.7525
81800,124.4681
81833,124.4681
81867,124.4681
81900,124.4681
81933,124.4681
81967,124.4681
82000,124.4681
82033,124.4681
82067,124.4681
82100,124.4681
82133,124.4681
82167,124.4681
82200,124.1379
82233,124.1379
82267,123.8095
82300,123.8095
82333,123.8095
82367,123.8095
82400,123.8095
82433,123.8095
82467,123.8095
82500,123.8095
82533,123.8095
82567,123.8095
82600,123.8095
82633,123.8095
82667,123.8095
82700,123.5294
82733,123.1579
82767,123.1579
82800,123.1579
82833,123.1579
82867,123.1579
82900,123.1579
82933,123.1579
82967,123.1579
83000,123.1579
83033,123.1579
83067,123.1579
83100,123.1579
83133,124.1379
83167,124.1379
83200,124.4681
83233,124.4681
83267,124.4681
83300,124.4681
83333,124.4681
83367,124.4681
83400,124.4681
83433,124.4681
83467,124.4681
83500,124.4681
83533,124.4681
83567,124.4681
83600,124.4681
83633,124.4681
83667,124.4681
83700,123.8095
83733,123.8095
83767,123.8095
83800,123.8095
83833,123.8095
83867,123.8095
83900,123.8095
83933,123.8095
83967,123.8095
84000,123.8095
84033,123.8095
84067,124.1379
84100,124.1379
84133,123.8095
84167,123.8095
84200,123.8095
84233,123.8095
84267,123.8095
84300,123.8095
84333,123.8095
84367,123.8095
84400,123.8095
84433,123.8095
84467,123.8095
84500,123.8095
84533,123.8095
84567,123.8095
84600,124.4681
84633,124.4681
84667,124.4681
84700,124.4681
84733,124.4681
84767,124.4681
84800,124.4681
84833,124.4681
84867,124.4681
84900,124.4681
84933,124.4681
84967,124.4681
85000,124.4681
85033,124.4681
85067,124.8555
85100,124.8555
85133,124.8555
85167,124.8555
85200,124.8555
85233,124.8555
85267,119.3878
85300,119.3878
85333,119.3878
85367,119.3878
85400,119.3878
85433,119.3878
85467,119.3878
85500,119.3878
85533,119.3878
85567,119.337
85600,119.337
85633,119.337
85667,119.337
85700,119.337
85733,120.0
85767,120.0
85800,120.0
85833,120.0
85867,120.0
85900,120.0
85933,120.0
85967,120.0
86000,120.0
86033,120.0
86067,120.6704
86100,120.6704
86133,120.6704
86167,120.6704
86200,120.6704
86233,120.6186
86267,120.6186
86300,120.6186
86333,120.6186
86367,120.6186
86400,120.6186
86433,120.6186
86467,120.6186
86500,120.6186
86533,120.6186
86567,120.6186
86600,120.6704
86633,120.6704
86667,120.6704
86700,120.6704
86733,120.6704
86767,120.0
86800,120.0
86833,120.0
86867,120.0
86900,120.0
86933,120.0
86967,120.0
87000,120.0
87033,120.0
87067,120.0
87100,119.337
87133,119.337
87167,119.337
87200,119.337
87233,119.337
87267,119.337
87300,119.337
87333,119.337
87367,119.337
87400,119.3878
87433,119.3878
87467,119.3878
87500,119.3878
87533,119.3878
87567,118.6813
87600,118.6813
87633,118.6813
87667,118.6813
87700,118.6813
87733,118.6813
87767,118.6813
87800,118.6813
87833,118.6813
87867,118.6813
87900,116.4179
87933,116.4179
87967,116.4179
88000,116.4179
88033,116.129
88067,116.129
88100,116.129
88133,116.129
88167,116.129
88200,116.129
88233,116.129
88267,116.129
88300,116.129
88333,117.5879
88367,117.5879
88400,117.5879
88433,117.5879
88467,117.5879
88500,117.5879
88533,117.3913
88567,117.3913
88600,117.3913
88633,117.3913
88667,117.3913
88700,117.3913
88733,117.3913
88767,117.3913
88800,118.1818
88833,118.1818
88867,118.1818
88900,118.1818
88933,118.1818
88967,118.1818
89000,118.1818
89033,118.0328
89067,118.0328
89100,118.0328
89133,118.0328
89167,118.0328
89200,118.0328
89233,118.0328
89267,118.0328
89300,118.1818
89333,118.1818
89367,118.1818
89400,118.1818
89433,118.1818
89467,118.1818
89500,117.5879
89533,116.129
89567,116.129
89600,115.508
89633,115.508
89667,115.508
89700,115.508
89733,115.508
89767,115.508
89800,115.508
89833,115.508
89867,115.508
89900,115.508
89933,115.508
89967,114.4509
90000,114.4509
90033,114.4509
90067,114.4509
90100,110.7692
90133,110.7692
90167,110.7692
90200,110.7692
90233,110.7692
90267,110.7692
90300,110.7692
90333,110.7692
90367,101.5385
90400,101.5385
90433,98.9011
90467,98.9011
90500,98.9011
90533,98.9011
90567,98.9011
90600,98.9011
90633,98.9011
90667,98.36066
90700,98.36066
90733,98.36066
90767,98.36066
90800,98.36066
90833,98.36066
90867,96.42857
90900,85.71429
90933,85.71429
90967,85.71429
91000,85.71429
91033,85.71429
91067,85.71429
91100,85.71429
91133,85.71429
91167,85.71429
91200,85.71429
91233,85.71429
91267,80.59702
91300,80.59702
91333,80.59702
91367,80.44693000000002
91400,80.89888
91433,80.89888
91467,80.89888
91500,80.89888
91533,80.89888
91567,80.89888
91600,80.89888
91633,80.89888
91667,80.89888
91700,80.89888
91733,80.89888
91767,80.89888
91800,80.89888
91833,80.89888
91867,80.89888
91900,80.89888
91933,80.89888
91967,80.89888
92000,80.89888
92033,80.89888
92067,80.89888
92100,80.89888
92133,76.36364
92167,76.36364
92200,76.36364
92233,76.36364
92267,76.36364
92300,76.36364
92333,76.36364
92367,72.36180999999998
92400,72.36180999999998
92433,72.36180999999998
92467,72.36180999999998
92500,63.31658
92533,63.31658
92567,63.905330000000006
92600,63.905330000000006
92633,63.905330000000006
92667,63.905330000000006
92700,63.905330000000006
92733,63.905330000000006
92767,63.905330000000006
92800,63.905330000000006
92833,63.52941
92867,63.52941
92900,63.52941
92933,63.52941
92967,63.52941
93000,63.52941
93033,63.52941
93067,63.52941
93100,63.52941
93133,63.52941
93167,63.52941
93200,63.52941
93233,63.52941
93267,63.52941
93300,63.52941
93333,63.52941
93367,63.52941
93400,63.52941
93433,62.37624
93467,62.37624
93500,62.37624
93533,62.42775
93567,62.42775
93600,62.42775
93633,62.42775
93667,62.42775
93700,62.42775
93733,62.42775
93767,62.7907
93800,52.32558
93833,52.32558
93867,52.32558
93900,52.32558
93933,52.32558
93967,52.32558
94000,52.32558
94033,52.32558
94067,52.32558
94100,52.32558
94133,52.32558
94167,55.38462
94200,55.38462
94233,55.38462
94267,55.38462
94300,55.38462
94333,55.38462
94367,55.38462
94400,55.38462
94433,55.38462
94467,55.38462
94500,53.89222
94533,53.89222
94567,53.89222
94600,53.89222
94633,53.89222
94667,53.89222
94700,53.89222
94733,53.89222
94767,53.89222
94800,53.89222
94833,53.89222
94867,53.89222
94900,53.89222
94933,53.89222
94967,53.89222
95000,53.89222
95033,53.89222
95067,53.89222
95100,53.89222
95133,53.89222
95167,54.82233000000001
95200,54.82233000000001
95233,54.82233000000001
95267,54.82233000000001
95300,54.82233000000001
95333,54.82233000000001
95367,54.82233000000001
95400,54.82233000000001
95433,58.44156
95467,58.44156
95500,58.44156
95533,58.44156
95567,58.44156
95600,58.44156
95633,58.44156
95667,58.44156
95700,58.44156
95733,58.44156
95767,58.44156
95800,58.44156
95833,58.44156
95867,58.44156
95900,58.44156
95933,61.01695
95967,61.01695
96000,61.01695
96033,61.01695
96067,61.01695
96100,61.01695
96133,61.01695
96167,61.01695
96200,61.01695
96233,61.01695
96267,61.01695
96300,61.01695
96333,61.01695
96367,61.01695
96400,61.01695
96433,61.01695
96467,61.01695
96500,61.01695
96533,61.01695
96567,61.01695
96600,61.01695
96633,61.01695
96667,61.01695
96700,61.01695
96733,61.01695
96767,61.01695
96800,61.01695
96833,61.01695
96867,60.0
96900,60.33519
96933,60.33519
96967,60.33519
97000,60.33519
97033,60.33519
97067,60.33519
97100,60.33519
97133,60.33519
97167,60.33519
97200,60.33519
97233,60.33519
97267,60.33519
97300,60.33519
97333,60.33519
97367,60.33519
97400,60.33519
97433,60.33519
97467,60.33519
97500,60.33519
97533,60.33519
97567,60.33519
97600,60.33519
97633,60.33519
97667,60.33519
97700,60.33519
97733,60.33519
97767,66.17647
97800,66.17647
97833,66.17647
97867,66.17647
97900,66.25766999999999
97933,66.25766999999999
97967,66.17647
98000,66.17647
98033,66.17647
98067,66.17647
98100,66.17647
98133,66.17647
98167,66.17647
98200,66.17647
98233,66.17647
98267,66.17647
98300,66.17647
98333,66.17647
98367,66.17647
98400,66.17647
98433,66.17647
98467,52.94118
98500,52.94118
98533,52.94118
98567,48.3871
98600,48.3871
98633,48.3871
98667,48.3871
98700,48.3871
98733,48.3871
98767,48.3871
98800,48.3871
98833,48.3871
98867,48.3871
98900,48.12834
98933,48.12834
98967,48.12834
99000,48.12834
99033,48.12834
99067,48.12834
99100,48.12834
99133,48.12834
99167,48.12834
99200,54.13534
99233,54.13534
99267,54.13534
99300,54.13534
99333,53.73134
99367,53.73134
99400,53.73134
99433,53.73134
99467,67.92453
99500,67.92453
99533,67.92453
99567,67.92453
99600,67.92453
99633,67.92453
99667,67.92453
99700,67.92453
99733,67.92453
99767,67.92453
99800,68.35443000000001
99833,68.35443000000001
99867,68.35443000000001
99900,68.35443000000001
99933,68.35443000000001
99967,68.35443000000001
100000,68.35443000000001
100033,68.35443000000001
100067,68.35443000000001
100100,68.35443000000001
100133,68.35443000000001
100167,68.35443000000001
100200,68.35443000000001
100233,68.35443000000001
100267,68.35443000000001
100300,68.35443000000001
100333,68.35443000000001
100367,68.35443000000001
100400,68.35443000000001
100433,68.35443000000001
100467,68.35443000000001
100500,68.35443000000001
100533,68.35443000000001
100567,68.35443000000001
100600,68.35443000000001
100633,68.35443000000001
100667,68.35443000000001
100700,68.35443000000001
100733,68.35443000000001
100767,63.95939
100800,63.95939
100833,63.95939
100867,63.95939
100900,63.95939
100933,63.95939
100967,63.95939
101000,63.95939
101033,64.28571
101067,64.28571
101100,64.28571
101133,64.28571
101167,64.28571
101200,64.28571
101233,64.28571
101267,64.28571
101300,64.28571
101333,64.28571
101367,64.28571
101400,64.28571
101433,64.28571
101467,64.28571
101500,64.28571
101533,64.28571
101567,64.28571
101600,64.28571
101633,64.28571
101667,64.28571
101700,64.28571
101733,64.28571
101767,64.28571
101800,64.28571
101833,64.28571
101867,64.28571
101900,64.28571
101933,64.28571
101967,64.28571
102000,62.06896999999999
102033,62.06896999999999
102067,62.06896999999999
102100,62.06896999999999
102133,62.06896999999999
102167,62.06896999999999
102200,57.44681
102233,57.44681
102267,62.06896999999999
102300,56.5445
102333,56.5445
102367,56.5445
102400,56.5445
102433,56.5445
102467,56.5445
102500,56.5445
102533,56.5445
102567,56.5445
102600,56.5445
102633,56.5445
102667,56.5445
102700,56.5445
102733,56.5445
102767,55.90062
102800,55.90062
102833,55.90062
102867,55.90062
102900,55.90062
102933,55.90062
102967,55.90062
103000,55.90062
103033,55.90062
103067,55.90062
103100,55.90062
103133,55.90062
103167,55.90062
103200,55.90062
103233,55.90062
103267,55.90062
103300,55.90062
103333,55.90062
103367,55.90062
103400,55.90062
103433,55.90062
103467,67.08074
103500,65.28497
103533,65.28497
103567,65.28497
103600,65.28497
103633,65.28497
103667,65.28497
103700,65.28497
103733,65.28497
103767,64.28571
103800,64.28571
103833,64.28571
103867,64.28571
103900,64.28571
103933,64.28571
103967,64.28571
104000,64.28571
104033,67.02128
104067,57.44681
104100,57.44681
104133,57.44681
104167,57.44681
104200,57.44681
104233,57.44681
104267,57.44681
104300,57.44681
104333,57.44681
104367,57.44681
104400,57.44681
104433,57.44681
104467,57.44681
104500,57.44681
104533,57.44681
104567,67.02128
104600,67.08074
104633,70.39106
104667,70.39106
104700,70.39106
104733,70.39106
104767,70.39106
104800,70.39106
104833,70.39106
104867,70.39106
104900,70.39106
104933,70.39106
104967,70.39106
105000,70.39106
105033,70.39106
105067,70.39106
105100,70.39106
105133,70.39106
105167,70.39106
105200,73.46939
105233,73.46939
105267,73.46939
105300,73.46939
105333,73.46939
105367,73.46939
105400,73.46939
105433,73.46939
105467,73.46939
105500,72.83237
105533,72.4138
105567,72.4138
105600,72.4138
105633,72.4138
105667,72.4138
105700,72.4138
105733,72.4138
105767,75.39267
105800,75.39267
105833,75.39267
105867,75.39267
105900,72.4138
105933,72.4138
105967,72.4138
106000,72.4138
106033,72.4138
106067,72.4138
106100,72.4138
106133,62.06896999999999
106167,62.06896999999999
106200,65.96859
106233,62.42775
106267,62.7907
106300,62.7907
106333,73.25581
106367,73.25581
106400,73.25581
106433,83.72093000000002
106467,83.72093000000002
106500,83.72093000000002
106533,83.72093000000002
106567,83.72093000000002
106600,83.72093000000002
106633,83.72093000000002
106667,83.72093000000002
106700,83.72093000000002
106733,83.72093000000002
106767,83.72093000000002
106800,83.72093000000002
106833,81.29032
106867,81.29032
106900,81.29032
106933,81.29032
106967,81.29032
107000,81.29032
107033,81.29032
107067,73.84615
107100,73.84615
107133,73.84615
107167,73.84615
107200,73.84615
107233,73.84615
107267,73.84615
107300,73.84615
107333,73.84615
107367,73.84615
107400,84.70588000000002
107433,84.70588000000002
107467,84.70588000000002
107500,84.70588000000002
107533,84.70588000000002
107567,87.56756999999998
107600,87.56756999999998
107633,87.56756999999998
107667,87.56756999999998
107700,87.56756999999998
107733,87.56756999999998
107767,87.56756999999998
107800,87.56756999999998
107833,87.56756999999998
107867,87.56756999999998
107900,87.56756999999998
107933,87.56756999999998
107967,87.56756999999998
108000,87.56756999999998
108033,87.56756999999998
108067,88.04348
108100,88.04348
108133,88.04348
108167,88.04348
108200,88.04348
108233,86.22755
108267,86.22755
108300,86.22755
108333,86.22755
108367,84.375
108400,84.375
108433,84.375
108467,84.375
108500,84.375
108533,84.375
108567,80.89888
108600,80.89888
108633,80.89888
108667,80.89888
108700,80.89888
108733,80.89888
108767,80.89888
108800,80.89888
108833,80.89888
108867,80.89888
108900,80.89888
108933,80.89888
108967,80.89888
109000,80.89888
109033,80.89888
109067,80.89888
109100,80.89888
109133,80.89888
109167,80.89888
109200,80.89888
109233,80.89888
109267,72.97298
109300,72.97298
109333,72.97298
109367,70.78650999999998
109400,70.78650999999998
109433,70.78650999999998
109467,70.78650999999998
109500,70.78650999999998
109533,70.78650999999998
109567,70.78650999999998
109600,70.78650999999998
109633,70.78650999999998
109667,70.78650999999998
109700,70.78650999999998
109733,70.78650999999998
109767,70.78650999999998
109800,70.78650999999998
109833,70.78650999999998
109867,70.78650999999998
109900,70.78650999999998
109933,70.78650999999998
109967,70.78650999999998
110000,70.78650999999998
110033,70.78650999999998
110067,70.78650999999998
110100,70.78650999999998
110133,70.78650999999998
110167,70.78650999999998
110200,70.78650999999998
110233,70.78650999999998
110267,67.37968000000001
110300,67.37968000000001
110333,67.74194
110367,67.74194
110400,67.74194
110433,68.10811
110467,68.10811
110500,68.10811
110533,68.10811
110567,68.47825999999999
110600,73.09644
110633,73.09644
110667,73.09644
110700,73.09644
110733,73.09644
110767,73.09644
110800,73.09644
110833,73.09644
110867,70.0
110900,80.0
110933,80.0
110967,80.0
111000,80.0
111033,80.0
111067,80.0
111100,80.0
111133,80.0
111167,80.0
111200,80.0
111233,80.0
111267,80.0
111300,80.0
111333,80.0
111367,80.0
111400,80.44693000000002
111433,80.44693000000002
111467,77.77778
111500,77.77778
111533,75.78947
111567,75.78947
111600,75.78947
111633,75.78947
111667,75.78947
111700,75.78947
111733,75.78947
111767,85.26316
111800,85.26316
111833,94.73684
111867,94.73684
111900,94.73684
111933,94.73684
111967,94.73684
112000,94.73684
112033,94.73684
112067,94.73684
112100,94.73684
112133,94.73684
112167,94.73684
112200,94.73684
112233,94.73684
112267,94.73684
112300,94.73684
112333,94.24084
112367,94.24084
112400,94.24084
112433,94.24084
112467,103.6649
112500,105.8824
112533,103.6649
112567,103.6649
112600,103.6649
112633,103.6649
112667,103.6649
112700,103.6649
112733,103.6649
112767,103.6649
112800,103.6649
112833,103.6649
112867,103.6649
112900,103.6649
112933,103.6649
112967,101.6949
113000,103.125
113033,103.125
113067,103.125
113100,103.125
113133,103.125
113167,103.125
113200,103.125
113233,103.125
113267,103.125
113300,103.125
113333,103.125
113367,103.125
113400,103.125
113433,100.5587
113467,100.5587
113500,100.5587
113533,100.5587
113567,110.6145
113600,110.6145
113633,110.6145
113667,110.6145
113700,108.0
113733,108.0
113767,108.0
113800,108.0
113833,108.0
113867,107.6087
113900,107.6087
113933,107.6087
113967,107.6087
114000,107.6087
114033,107.6087
114067,107.6087
114100,107.6087
114133,109.6447
114167,109.6447
114200,109.6447
114233,109.6447
114267,109.6447
114300,109.6447
114333,109.6447
114367,109.6447
114400,108.7912
114433,108.7912
114467,108.7912
114500,108.7912
114533,108.7912
114567,108.7912
114600,108.7912
114633,108.7912
114667,108.7912
114700,108.7912
114733,108.7912
114767,107.4627
114800,107.4627
114833,107.4627
114867,107.4627
114900,105.3191
114933,105.8824
114967,105.8824
115000,105.8824
115033,105.8824
115067,105.8824
115100,105.8824
115133,105.8824
115167,105.8824
115200,105.8824
115233,105.8824
115267,105.8824
115300,105.8824
115333,106.4516
115367,106.4516
115400,106.4516
115433,106.4516
115467,106.4516
115500,106.4516
115533,106.4516
115567,106.4516
115600,106.4516
115633,105.8824
115667,105.8824
115700,105.8824
115733,105.8824
115767,105.8824
115800,105.8824
115833,106.4039
115867,106.4039
115900,106.4516
115933,106.4516
115967,106.4516
116000,106.4516
116033,106.4516
116067,106.4516
116100,106.4516
116133,106.4516
116167,106.4516
116200,106.4516
116233,106.4516
116267,106.4516
116300,106.4516
116333,106.4516
116367,106.9307
116400,106.9307
116433,106.9307
116467,105.8824
116500,105.8824
116533,105.8824
116567,105.8824
116600,105.8824
116633,105.8824
116667,105.8824
116700,105.8824
116733,105.8824
116767,105.8824
116800,105.8824
116833,105.8824
116867,105.8824
116900,105.8824
116933,105.8824
116967,105.8824
117000,105.8824
117033,105.8824
117067,105.8824
117100,105.8824
117133,105.8824
117167,105.8824
117200,105.8824
117233,105.8824
117267,105.8824
117300,105.8824
117333,105.8824
117367,107.4627
117400,107.4627
117433,107.4627
117467,107.4627
117500,111.8644
117533,111.8644
117567,111.8644
117600,111.8644
117633,111.8644
117667,111.8644
117700,111.8644
117733,111.8644
117767,111.8644
117800,111.8644
117833,111.8644
117867,111.8644
117900,111.8644
117933,111.3402
117967,111.3402
118000,111.3402
118033,111.3402
118067,111.3402
118100,111.3402
118133,111.3402
118167,111.3402
118200,111.3402
118233,111.3402
118267,111.3402
118300,111.236
118333,111.236
118367,111.236
118400,111.236
118433,111.236
118467,111.236
118500,111.236
118533,111.236
118567,111.236
118600,109.0909
118633,109.0909
118667,109.0909
118700,109.0909
118733,109.0909
118767,109.0909
118800,109.0909
118833,108.7912
118867,108.7912
118900,108.7912
118933,108.7912
118967,108.7912
119000,108.7912
119033,108.7912
119067,108.7912
119100,108.7912
119133,109.0909
119167,109.0909
119200,109.0909
119233,109.0909
119267,109.0909
119300,109.0909
119333,109.0909
119367,108.7912
119400,108.7912
119433,108.7912
119467,108.7912
119500,108.7912
119533,108.7912
119567,108.7912
119600,108.7912
119633,108.7912
119667,109.0909
119700,109.0909
119733,109.0909
119767,109.0909
119800,109.0909
119833,109.0909
119867,109.0909
119900,109.3923
119933,109.3923
119967,109.3923
120000,109.3923
120033,109.3923
120067,109.3923
120100,109.3923
120133,109.3923
120167,109.3923
120200,109.3923
120233,109.3923
120267,109.3923
120300,108.0
120333,108.0
120367,108.0
120400,108.0
120433,108.0
120467,108.1967
120500,108.1967
120533,108.1967
120567,108.1967
120600,108.1967
120633,108.1967
120667,108.1967
120700,108.1967
120733,108.1967
120767,108.1967
120800,108.1967
120833,108.1967
120867,108.1967
120900,108.1967
120933,108.1967
120967,98.36066
121000,97.05882
121033,97.00599
121067,94.73684
121100,94.73684
121133,94.73684
121167,94.73684
121200,94.73684
121233,94.73684
121267,94.73684
121300,94.73684
121333,85.26316
121367,85.26316
121400,85.26316
121433,85.26316
121467,85.26316
121500,85.26316
121533,85.26316
121567,82.28571
121600,85.26316
121633,85.26316
121667,85.26316
121700,85.26316
121733,82.28571
121767,82.28571
121800,81.81818
121833,81.81818
121867,81.81818
121900,81.81818
121933,81.81818
121967,81.81818
122000,81.81818
122033,81.81818
122067,76.19048000000002
122100,73.25581
122133,73.25581
122167,73.25581
122200,73.25581
122233,73.25581
122267,73.25581
122300,73.25581
122333,73.25581
122367,73.25581
122400,73.25581
122433,73.25581
122467,73.25581
122500,73.25581
122533,73.25581
122567,73.25581
122600,73.25581
122633,73.25581
122667,69.23076999999999
122700,69.23076999999999
122733,69.23076999999999
122767,69.23076999999999
122800,69.23076999999999
122833,69.23076999999999
122867,69.23076999999999
122900,69.23076999999999
122933,69.23076999999999
122967,69.23076999999999
123000,69.23076999999999
123033,69.23076999999999
123067,69.23076999999999
123100,65.625
123133,65.625
123167,65.625
123200,66.66666
123233,66.66666
123267,66.66666
123300,66.66666
123333,66.66666
123367,66.66666
123400,66.66666
123433,66.66666
123467,66.66666
123500,66.66666
123533,66.66666
123567,66.66666
123600,66.66666
123633,66.66666
123667,66.66666
123700,66.66666
123733,66.31579
123767,66.31579
123800,66.31579
123833,66.31579
123867,66.31579
123900,66.31579
123933,66.31579
123967,66.31579
124000,66.31579
124033,66.31579
124067,66.31579
124100,66.31579
124133,66.31579
124167,66.31579
124200,62.06896999999999
124233,62.06896999999999
124267,62.06896999999999
124300,62.06896999999999
124333,62.06896999999999
124367,62.06896999999999
124400,62.06896999999999
124433,62.06896999999999
124467,62.06896999999999
124500,62.06896999999999
124533,62.06896999999999
124567,62.06896999999999
124600,62.06896999999999
124633,62.06896999999999
124667,62.06896999999999
124700,62.06896999999999
124733,58.82353000000001
124767,58.82353000000001
124800,58.06452
124833,58.06452
124867,58.06452
124900,58.06452
124933,58.06452
124967,58.06452
125000,58.06452
125033,58.06452
125067,58.06452
125100,58.06452
125133,58.06452
125167,58.06452
125200,58.37838000000001
125233,58.37838000000001
125267,58.37838000000001
125300,58.37838000000001
125333,58.37838000000001
125367,58.37838000000001
125400,58.37838000000001
125433,56.60378000000001
125467,56.60378000000001
125500,56.60378000000001
125533,56.60378000000001
125567,56.60378000000001
125600,56.96202
125633,56.96202
125667,56.96202
125700,56.96202
125733,56.96202
125767,56.96202
125800,56.96202
125833,56.96202
125867,56.96202
125900,56.96202
125933,56.96202
125967,56.96202
126000,56.96202
126033,56.96202
126067,56.96202
126100,56.96202
126133,56.96202
126167,56.96202
126200,56.96202
126233,56.96202
126267,56.96202
126300,54.13534
126333,55.38462
126367,55.38462
126400,55.38462
126433,55.38462
126467,55.38462
126500,55.38462
126533,56.25
126567,56.25
126600,56.25
126633,56.25
126667,56.25
126700,56.25
126733,56.25
126767,56.25
126800,56.25
126833,56.25
126867,56.25
126900,56.25
126933,56.25
126967,56.25
127000,56.25
127033,56.25
127067,56.25
127100,56.25
127133,60.0
127167,60.0
127200,60.0
127233,60.0
127267,60.0
127300,60.0
127333,60.0
127367,60.0
127400,60.0
127433,60.0
127467,60.0
127500,60.0
127533,60.0
127567,60.0
127600,51.72414000000001
127633,51.72414000000001
127667,51.72414000000001
127700,51.72414000000001
127733,51.72414000000001
127767,51.72414000000001
127800,51.72414000000001
127833,57.14286
127867,57.14286
127900,57.14286
127933,57.14286
127967,62.42775
128000,62.42775
128033,62.42775
128067,62.42775
128100,62.42775
128133,64.94846
128167,64.94846
128200,62.42775
128233,62.42775
128267,62.42775
128300,62.42775
128333,62.42775
128367,62.42775
128400,62.37624
128433,62.37624
128467,62.37624
128500,66.25766999999999
128533,66.25766999999999
128567,66.25766999999999
128600,66.25766999999999
128633,66.25766999999999
128667,69.61326
128700,69.23076999999999
128733,69.23076999999999
128767,69.23076999999999
128800,69.23076999999999
128833,69.23076999999999
128867,69.23076999999999
128900,69.23076999999999
128933,69.23076999999999
128967,69.23076999999999
129000,69.23076999999999
129033,69.23076999999999
129067,69.23076999999999
129100,69.23076999999999
129133,65.85365999999999
129167,65.85365999999999
129200,65.85365999999999
129233,67.02128
129267,67.02128
129300,67.02128
129333,67.02128
129367,67.02128
129400,67.02128
129433,67.02128
129467,67.02128
129500,67.02128
129533,67.02128
129567,67.02128
129600,67.02128
129633,67.02128
129667,67.02128
129700,67.02128
129733,67.02128
129767,67.02128
129800,65.06024000000001
129833,68.47825999999999
129867,68.47825999999999
129900,68.47825999999999
129933,68.47825999999999
129967,68.47825999999999
130000,68.47825999999999
130033,68.47825999999999
130067,68.47825999999999
130100,68.47825999999999
130133,68.47825999999999
130167,68.47825999999999
130200,68.47825999999999
130233,68.47825999999999
130267,68.47825999999999
130300,68.47825999999999
130333,68.47825999999999
130367,68.47825999999999
130400,71.64179
130433,71.64179
130467,71.64179
130500,71.64179
130533,72.83237
130567,72.83237
130600,72.83237
130633,72.83237
130667,72.83237
130700,72.83237
130733,73.25581
130767,73.25581
130800,73.25581
130833,73.25581
130867,73.25581
130900,73.25581
130933,73.25581
130967,73.25581
131000,73.25581
131033,73.25581
131067,73.25581
131100,73.25581
131133,73.25581
131167,73.25581
131200,62.7907
131233,62.7907
131267,62.7907
131300,62.7907
131333,62.68657
131367,62.68657
131400,62.68657
131433,62.68657
131467,63.15789
131500,63.15789
131533,63.15789
131567,63.15789
131600,63.15789
131633,63.15789
131667,63.15789
131700,63.15789
131733,63.15789
131767,63.15789
131800,63.15789
131833,63.15789
131867,63.15789
131900,63.15789
131933,63.15789
131967,63.15789
132000,63.15789
132033,63.15789
132067,63.15789
132100,63.15789
132133,63.15789
132167,63.15789
132200,63.15789
132233,63.15789
132267,63.31658
132300,63.31658
132333,63.31658
132367,63.31658
132400,63.31658
132433,63.31658
132467,60.0
132500,60.0
132533,60.0
132567,60.0
132600,60.0
132633,60.0
132667,60.0
132700,60.0
132733,60.0
132767,60.0
132800,60.0
132833,60.0
132867,60.0
132900,60.0
132933,60.0
132967,60.0
133000,60.0
133033,60.0
133067,60.0
133100,63.52941
133133,63.52941
133167,63.15789
133200,63.15789
133233,63.15789
133267,63.15789
133300,63.15789
133333,63.15789
133367,63.15789
133400,63.15789
133433,63.15789
133467,63.15789
133500,63.15789
133533,63.15789
133567,63.15789
133600,63.15789
133633,63.15789
133667,63.15789
133700,63.15789
133733,63.15789
133767,63.15789
133800,63.15789
133833,63.15789
133867,63.15789
133900,63.15789
133933,63.15789
133967,63.15789
134000,63.15789
134033,63.15789
134067,63.0
134100,63.0
134133,63.0
134167,63.0
134200,63.0
134233,62.42775
134267,62.42775
134300,62.42775
134333,62.42775
134367,62.42775
134400,62.42775
134433,62.42775
134467,62.42775
134500,62.42775
134533,62.42775
134567,62.42775
134600,62.42775
134633,62.42775
134667,62.42775
134700,62.42775
134733,62.42775
134767,62.42775
134800,62.42775
134833,62.42775
134867,62.42775
134900,62.42775
134933,62.42775
134967,62.42775
135000,62.42775
135033,62.37624
135067,62.37624
135100,62.37624
135133,62.06896999999999
135167,62.06896999999999
135200,62.06896999999999
135233,61.71429000000001
135267,61.71429000000001
135300,61.36364
135333,61.36364
135367,61.36364
135400,61.36364
135433,61.36364
135467,61.36364
135500,61.36364
135533,61.36364
135567,61.36364
135600,61.36364
135633,61.36364
135667,61.36364
135700,61.36364
135733,61.36364
135767,61.36364
135800,61.36364
135833,61.01695
135867,61.01695
135900,61.01695
135933,61.01695
135967,61.01695
136000,61.01695
136033,62.5
136067,62.5
136100,62.5
136133,62.5
136167,62.5
136200,62.5
136233,62.5
136267,62.5
136300,62.5
136333,62.5
136367,62.5
136400,62.5
136433,62.5
136467,62.5
136500,62.5
136533,62.5
136567,57.44681
136600,57.44681
136633,57.44681
136667,57.44681
136700,57.44681
136733,57.44681
136767,57.44681
136800,57.44681
136833,57.44681
136867,57.44681
136900,57.44681
136933,57.44681
136967,57.44681
137000,57.44681
137033,57.44681
137067,57.44681
137100,57.44681
137133,56.96202
137167,56.96202
137200,56.96202
137233,56.96202
137267,56.96202
137300,56.96202
137333,56.96202
137367,56.96202
137400,56.96202
137433,56.96202
137467,56.96202
137500,58.06452
137533,58.06452
137567,58.06452
137600,58.06452
137633,58.06452
137667,58.06452
137700,58.06452
137733,58.06452
137767,58.06452
137800,58.06452
137833,58.06452
137867,58.06452
137900,58.06452
137933,58.06452
137967,58.06452
138000,58.06452
138033,58.06452
138067,58.06452
138100,58.06452
138133,56.96202
138167,56.96202
138200,56.96202
138233,56.96202
138267,56.96202
138300,56.96202
138333,56.96202
138367,56.96202
138400,56.96202
138433,56.96202
138467,56.96202
138500,56.96202
138533,56.96202
138567,56.96202
138600,56.96202
138633,56.96202
138667,56.96202
138700,55.6701
138733,55.6701
138767,55.6701
138800,55.6701
138833,55.6701
138867,55.6701
138900,55.6701
138933,55.6701
138967,55.6701
139000,55.6701
139033,55.6701
139067,53.57143000000001
139100,53.57143000000001
139133,53.57143000000001
139167,53.57143000000001
139200,53.57143000000001
139233,53.57143000000001
139267,53.57143000000001
139300,53.57143000000001
139333,53.57143000000001
139367,53.57143000000001
139400,53.57143000000001
139433,53.57143000000001
139467,53.57143000000001
139500,53.57143000000001
139533,53.25444
139567,53.25444
139600,53.25444
139633,53.25444
139667,53.25444
139700,53.25444
139733,53.57143000000001
139767,53.57143000000001
139800,53.57143000000001
139833,53.57143000000001
139867,53.57143000000001
139900,53.57143000000001
139933,51.79856
139967,51.79856
140000,51.79856
140033,50.27933
140067,50.27933
140100,50.27933
140133,50.27933
140167,50.27933
140200,50.27933
140233,50.27933
140267,50.27933
140300,50.27933
140333,50.27933
140367,50.27933
140400,50.27933
140433,50.27933
140467,50.27933
140500,50.27933
140533,50.27933
140567,50.27933
140600,50.27933
140633,50.27933
140667,50.27933
140700,50.27933
140733,50.27933
140767,50.27933
140800,50.27933
140833,50.27933
140867,50.27933
140900,49.31507
140933,49.31507
140967,51.72414000000001
141000,51.72414000000001
141033,51.72414000000001
141067,51.72414000000001
141100,51.72414000000001
141133,51.72414000000001
141167,51.72414000000001
141200,51.72414000000001
141233,51.72414000000001
141267,51.72414000000001
141300,51.72414000000001
141333,51.72414000000001
141367,51.72414000000001
141400,51.72414000000001
141433,51.72414000000001
141467,51.72414000000001
141500,51.72414000000001
141533,51.13636
141567,51.42857
141600,51.42857
141633,55.6701
141667,55.38462
141700,55.38462
141733,55.38462
141767,55.10204
141800,55.10204
141833,55.10204
141867,55.10204
141900,59.60265
141933,59.60265
141967,59.60265
142000,59.60265
142033,60.0
142067,66.25766999999999
142100,66.66666
142133,60.0
142167,60.0
142200,60.0
142233,60.0
142267,60.0
142300,55.38462
142333,55.38462
142367,55.38462
142400,55.38462
142433,55.38462
142467,55.38462
142500,55.38462
142533,55.38462
142567,55.38462
142600,55.38462
142633,55.38462
142667,54.961830000000006
142700,54.961830000000006
142733,54.961830000000006
142767,48.3871
142800,48.3871
142833,48.3871
142867,48.3871
142900,48.3871
142933,48.3871
142967,48.3871
143000,48.3871
143033,48.3871
143067,48.3871
143100,48.3871
143133,48.64865
143167,48.64865
143200,48.64865
143233,48.64865
143267,48.64865
143300,48.64865
143333,48.64865
143367,48.64865
143400,45.85987
143433,45.85987
143467,45.85987
143500,45.85987
143533,45.85987
143567,49.45055
143600,49.45055
143633,49.18033
143667,49.18033
143700,49.18033
143733,49.18033
143767,49.18033
143800,49.18033
143833,49.18033
143867,49.18033
143900,49.18033
143933,49.18033
143967,49.18033
144000,49.18033
144033,49.45055
144067,49.45055
144100,49.45055
144133,49.45055
144167,49.45055
144200,49.45055
144233,49.45055
144267,49.45055
144300,49.45055
144333,49.31507
144367,49.31507
144400,49.31507
144433,49.31507
144467,49.31507
144500,49.31507
144533,51.42857
144567,51.42857
144600,51.42857
144633,51.42857
144667,51.42857
144700,51.42857
144733,51.42857
144767,51.42857
144800,51.42857
144833,51.42857
144867,51.42857
144900,51.42857
144933,51.42857
144967,51.42857
145000,51.42857
145033,51.42857
145067,51.42857
145100,51.42857
145133,51.42857
145167,51.42857
145200,51.42857
145233,51.42857
145267,51.42857
145300,51.42857
145333,51.42857
145367,51.42857
145400,51.42857
145433,51.42857
145467,51.42857
145500,51.42857
145533,53.33333
145567,53.33333
145600,53.33333
145633,53.33333
145667,53.33333
145700,53.33333
145733,52.94118
145767,52.94118
145800,52.94118
145833,52.94118
145867,52.94118
145900,52.94118
145933,52.94118
145967,52.94118
146000,52.94118
146033,52.94118
146067,52.94118
146100,52.94118
146133,52.94118
146167,52.94118
146200,52.94118
146233,52.94118
146267,52.94118
146300,52.94118
146333,52.94118
146367,52.94118
146400,52.94118
146433,52.94118
146467,52.94118
146500,52.94118
146533,52.94118
146567,52.94118
146600,52.94118
146633,52.94118
146667,52.94118
146700,52.94118
146733,52.94118
146767,52.94118
146800,52.94118
146833,52.94118
146867,50.70422
146900,50.70422
146933,50.70422
146967,50.70422
147000,50.70422
147033,50.70422
147067,50.70422
147100,50.70422
147133,50.70422
147167,48.3871
147200,48.3871
147233,48.3871
147267,48.3871
147300,48.3871
147333,48.3871
147367,48.3871
147400,48.3871
147433,48.3871
147467,48.3871
147500,48.3871
147533,48.3871
147567,48.3871
147600,48.3871
147633,48.3871
147667,48.3871
147700,48.3871
147733,48.3871
147767,48.3871
147800,54.13534
147833,54.13534
147867,54.13534
147900,54.13534
147933,54.13534
147967,54.13534
148000,54.13534
148033,54.13534
148067,58.82353000000001
148100,58.82353000000001
148133,58.44156
148167,58.06452
148200,58.06452
148233,57.32484
148267,57.32484
148300,57.32484
148333,57.32484
148367,57.32484
148400,57.32484
148433,57.32484
148467,62.7907
148500,62.42775
148533,62.42775
148567,62.42775
148600,62.42775
148633,62.06896999999999
148667,62.06896999999999
148700,62.06896999999999
148733,62.06896999999999
148767,62.06896999999999
148800,62.06896999999999
148833,62.06896999999999
148867,62.06896999999999
148900,62.06896999999999
148933,62.06896999999999
148967,62.06896999999999
149000,66.66666
149033,66.66666
149067,66.66666
149100,66.66666
149133,76.19048000000002
149167,76.19048000000002
149200,76.19048000000002
149233,76.19048000000002
149267,76.19048000000002
149300,76.19048000000002
149333,76.19048000000002
149367,75.78947
149400,75.78947
149433,75.78947
149467,75.78947
149500,77.30060999999998
149533,88.34356
149567,91.52542
149600,91.52542
149633,91.52542
149667,91.52542
149700,91.52542
149733,91.52542
149767,91.52542
149800,91.52542
149833,91.52542
149867,91.52542
149900,91.52542
149933,91.52542
149967,91.52542
150000,91.52542
150033,91.52542
150067,91.52542
150100,91.52542
150133,91.52542
150167,91.52542
150200,91.52542
150233,91.52542
150267,91.52542
150300,89.10891
150333,89.10891
150367,89.10891
150400,93.64162
150433,93.64162
150467,93.64162
150500,93.64162
150533,93.64162
150567,93.64162
150600,93.64162
150633,93.64162
150667,93.64162
150700,93.64162
150733,93.64162
150767,96.25668
150800,96.25668
150833,96.25668
150867,96.25668
150900,96.25668
150933,96.25668
150967,96.25668
151000,96.25668
151033,96.25668
151067,105.8824
151100,105.8824
151133,105.8824
151167,105.8824
151200,105.8824
151233,105.8824
151267,105.8824
151300,105.8824
151333,105.8824
151367,115.3846
151400,113.1429
151433,113.1429
151467,113.1429
151500,113.1429
151533,113.1429
151567,113.1429
151600,113.1429
151633,113.1429
151667,113.1429
151700,112.5
151733,112.5
151767,112.5
151800,112.5
151833,112.5
151867,111.8644
151900,111.8644
151933,111.8644
151967,111.236
152000,111.236
152033,112.5
152067,112.5
152100,112.5
152133,112.5
152167,112.5
152200,112.5
152233,112.5
152267,112.5
152300,112.5
152333,112.5
152367,112.5
152400,110.6145
152433,111.236
152467,111.236
152500,111.236
152533,111.236
152567,111.236
152600,111.236
152633,111.236
152667,111.236
152700,105.8824
152733,105.8824
152767,105.8824
152800,105.8824
152833,105.8824
152867,105.8824
152900,105.8824
152933,105.8824
152967,105.8824
153000,105.8824
153033,105.8824
153067,105.8824
153100,105.8824
153133,105.8824
153167,105.8824
153200,105.8824
153233,105.8824
153267,105.8824
153300,105.2632
153333,105.2632
153367,105.2632
153400,103.125
153433,103.125
153467,103.125
153500,103.125
153533,93.75
153567,93.75
153600,93.75
153633,93.75
153667,93.75
153700,93.75
153733,93.75
153767,93.75
153800,93.75
153833,100.0
153867,100.0
153900,100.0
153933,100.0
153967,100.0
154000,100.0
154033,99.44752
154067,99.44752
154100,99.44752
154133,99.44752
154167,98.9011
154200,98.9011
154233,98.36066
154267,98.36066
154300,98.36066
154333,98.36066
154367,98.36066
154400,98.36066
154433,98.36066
154467,98.36066
154500,98.36066
154533,98.9011
154567,98.9011
154600,98.9011
154633,99.49749
154667,99.49749
154700,99.49749
154733,99.49749
154767,99.49749
154800,99.49749
154833,98.36066
154867,98.36066
154900,98.36066
154933,98.36066
154967,98.36066
155000,98.36066
155033,98.36066
155067,101.0204
155100,101.0204
155133,101.0204
155167,101.0204
155200,101.0204
155233,101.0204
155267,101.0204
155300,101.0204
155333,101.0204
155367,98.36066
155400,98.36066
155433,108.1967
155467,108.1967
155500,108.1967
155533,109.6447
155567,109.6447
155600,109.6447
155633,109.6447
155667,109.6447
155700,109.6447
155733,109.6447
155767,109.6447
155800,109.3923
155833,109.3923
155867,109.3923
155900,109.3923
155933,109.3923
155967,109.3923
156000,109.3923
156033,110.2041
156067,110.2041
156100,110.2041
156133,110.2041
156167,110.2041
156200,110.2041
156233,110.2041
156267,110.2041
156300,110.2041
156333,113.7931
156367,113.7931
156400,113.7931
156433,113.7931
156467,113.7931
156500,113.7931
156533,113.7931
156567,113.7931
156600,113.089
156633,113.089
156667,113.089
156700,113.089
156733,113.089
156767,113.089
156800,113.089
156833,113.6842
156867,113.6842
156900,113.6842
156933,113.6842
156967,113.6842
157000,113.6842
157033,115.2709
157067,115.2709
157100,115.508
157133,115.508
157167,115.508
157200,115.508
157233,115.508
157267,115.508
157300,115.508
157333,115.508
157367,115.508
157400,115.508
157433,115.508
157467,115.508
157500,116.4179
157533,116.4179
157567,116.4179
157600,116.4179
157633,118.6813
157667,118.6813
157700,118.6813
157733,118.6813
157767,118.6813
157800,118.6813
157833,118.6813
157867,118.6813
157900,118.6813
157933,120.0
157967,120.0
158000,120.0
158033,120.0
158067,120.0
158100,120.0
158133,120.0
158167,120.0
158200,120.0
158233,120.0
158267,119.337
158300,119.337
158333,119.337
158367,119.337
158400,119.337
158433,119.337
158467,119.337
158500,118.1818
158533,118.1818
158567,118.1818
158600,118.1818
158633,118.1818
158667,118.1818
158700,118.1818
158733,124.1379
158767,124.1379
158800,114.4509
158833,114.4509
158867,114.4509
158900,114.4509
158933,114.4509
158967,114.4509
159000,114.4509
159033,114.4509
159067,114.4509
159100,112.5
159133,112.5
159167,112.5
159200,112.5
159233,112.5
159267,112.5
159300,112.5
159333,112.5
159367,112.5
159400,112.5
159433,112.5
159467,112.5
159500,112.5
159533,111.236
159567,111.236
159600,101.1236
159633,101.1236
159667,101.1236
159700,101.1236
159733,101.1236
159767,101.1236
159800,99.49749
159833,99.49749
159867,99.49749
159900,99.49749
159933,99.49749
159967,99.49749
160000,95.74468
160033,95.74468
160067,95.74468
160100,95.74468
160133,95.74468
160167,95.74468
160200,95.74468
160233,95.74468
160267,95.74468
160300,95.74468
160333,95.74468
160367,94.18604
160400,94.18604
160433,94.18604
160467,94.18604
160500,94.18604
160533,94.18604
160567,94.18604
160600,94.18604
160633,94.18604
160667,94.18604
160700,90.45226
160733,90.45226
160767,90.45226
160800,90.45226
160833,90.45226
160867,90.45226
160900,89.50276
160933,89.50276
160967,89.50276
161000,89.50276
161033,89.50276
161067,89.50276
161100,89.50276
161133,89.50276
161167,89.50276
161200,89.50276
161233,89.50276
161267,89.50276
161300,89.50276
161333,89.50276
161367,89.50276
161400,89.50276
161433,89.50276
161467,89.50276
161500,85.2071
161533,85.2071
161567,85.2071
161600,82.65306
161633,82.65306
161667,82.65306
161700,81.81818
161733,81.81818
161767,81.81818
161800,81.81818
161833,81.81818
161867,78.26087
161900,78.26087
161933,78.26087
161967,78.26087
162000,78.26087
162033,78.26087
162067,78.26087
162100,78.26087
162133,78.26087
162167,78.26087
162200,80.59702
162233,80.59702
162267,80.59702
162300,80.59702
162333,79.55801
162367,79.55801
162400,80.0
162433,80.0
162467,80.0
162500,80.0
162533,80.0
162567,80.0
162600,80.0
162633,80.0
162667,80.0
162700,80.0
162733,80.0
162767,80.0
162800,80.0
162833,80.0
162867,80.44693000000002
162900,80.44693000000002
162933,80.44693000000002
162967,79.41176999999998
163000,80.89888
163033,80.89888
163067,80.89888
163100,80.89888
163133,80.89888
163167,80.89888
163200,80.89888
163233,80.89888
163267,80.89888
163300,80.89888
163333,80.89888
163367,80.89888
163400,80.89888
163433,80.89888
163467,80.89888
163500,80.89888
163533,80.89888
163567,80.89888
163600,80.89888
163633,80.89888
163667,80.89888
163700,80.89888
163733,80.89888
163767,70.78650999999998
163800,70.78650999999998
163833,70.78650999999998
163867,71.05264
163900,71.05264
163933,71.05264
163967,71.05264
164000,71.05264
164033,71.05264
164067,71.05264
164100,71.05264
164133,71.05264
164167,71.05264
164200,71.05264
164233,71.05264
164267,71.05264
164300,71.05264
164333,71.05264
164367,71.05264
164400,71.05264
164433,71.05264
164467,71.05264
164500,71.05264
164533,63.31658
164567,63.31658
164600,63.31658
164633,63.31658
164667,63.31658
164700,63.31658
164733,59.01639
164767,59.01639
164800,59.01639
164833,59.01639
164867,59.01639
164900,59.01639
164933,59.01639
164967,59.01639
165000,59.34066
165033,59.34066
165067,59.34066
165100,63.0
165133,59.34066
165167,59.34066
165200,62.06896999999999
165233,62.06896999999999
165267,59.01639
165300,59.01639
165333,59.01639
165367,59.01639
165400,59.01639
165433,59.01639
165467,59.01639
165500,59.01639
165533,59.01639
165567,59.01639
165600,59.01639
165633,59.01639
165667,59.01639
165700,59.01639
165733,59.01639
165767,59.01639
165800,59.01639
165833,59.01639
165867,59.01639
165900,59.01639
165933,55.55556
165967,55.55556
166000,55.55556
166033,55.55556
166067,55.55556
166100,55.55556
166133,55.55556
166167,55.55556
166200,56.25
166233,56.25
166267,56.25
166300,56.25
166333,56.25
166367,56.25
166400,56.25
166433,56.25
166467,56.25
166500,56.25
166533,56.25
166567,56.25
166600,56.25
166633,56.25
166667,56.25
166700,56.25
166733,56.25
166767,56.25
166800,56.25
166833,56.25
166867,56.25
166900,56.25
166933,56.25
166967,56.25
167000,56.25
167033,56.25
167067,56.25
167100,56.25
167133,56.25
167167,56.25
167200,56.25
167233,56.25
167267,56.25
167300,56.25
167333,56.25
167367,55.38462
167400,55.38462
167433,55.38462
167467,55.38462
167500,55.38462
167533,56.25
167567,53.73134
167600,53.73134
167633,53.73134
167667,53.73134
167700,54.21686999999999
167733,54.21686999999999
167767,54.21686999999999
167800,54.21686999999999
167833,54.21686999999999
167867,54.21686999999999
167900,54.21686999999999
167933,54.21686999999999
167967,54.21686999999999
168000,54.21686999999999
168033,54.21686999999999
168067,54.21686999999999
168100,54.21686999999999
168133,54.21686999999999
168167,54.21686999999999
168200,54.21686999999999
168233,54.21686999999999
168267,54.21686999999999
168300,54.21686999999999
168333,54.21686999999999
168367,54.21686999999999
168400,54.21686999999999
168433,54.21686999999999
168467,55.90062
168500,55.90062
168533,55.90062
168567,55.90062
168600,55.90062
168633,54.54546
168667,54.54546
168700,63.95939
168733,63.95939
168767,63.95939
168800,63.95939
168833,63.95939
168867,63.95939
168900,63.905330000000006
168933,63.905330000000006
168967,63.905330000000006
169000,63.905330000000006
169033,63.52941
169067,63.52941
169100,63.52941
169133,63.52941
169167,63.52941
169200,63.52941
169233,63.52941
169267,66.66666
169300,66.66666
169333,66.66666
169367,66.66666
169400,66.66666
169433,66.66666
169467,66.66666
169500,66.66666
169533,66.66666
169567,66.66666
169600,66.66666
169633,66.66666
169667,66.66666
169700,66.66666
169733,66.66666
169767,66.66666
169800,77.14286
169833,77.14286
169867,79.74683
169900,79.74683
169933,79.74683
169967,79.74683
170000,79.74683
170033,79.74683
170067,79.74683
170100,79.74683
170133,79.74683
170167,79.74683
170200,79.74683
170233,79.74683
170267,79.74683
170300,79.74683
170333,79.74683
170367,91.13924
170400,91.13924
170433,93.10345
170467,93.10345
170500,93.10345
170533,93.10345
170567,93.10345
170600,93.10345
170633,93.10345
170667,93.10345
170700,93.10345
170733,93.10345
170767,93.10345
170800,93.10345
170833,93.10345
170867,93.10345
170900,93.10345
170933,93.10345
170967,93.10345
171000,93.10345
171033,93.10345
171067,93.26425
171100,93.26425
171133,93.26425
171167,93.26425
171200,93.26425
171233,93.26425
171267,93.26425
171300,93.26425
171333,93.26425
171367,93.26425
171400,93.26425
171433,93.26425
171467,93.64162
171500,93.64162
171533,93.64162
171567,93.64162
171600,93.64162
171633,94.73684
171667,94.73684
171700,94.73684
171733,94.73684
171767,94.73684
171800,94.73684
171833,94.73684
171867,94.73684
171900,94.73684
171933,94.73684
171967,94.73684
172000,94.73684
172033,94.73684
172067,94.73684
172100,94.73684
172133,97.00599
172167,98.36066
172200,98.36066
172233,98.36066
172267,98.36066
172300,98.36066
172333,98.36066
172367,98.36066
172400,98.36066
172433,98.36066
172467,98.9011
172500,98.9011
172533,98.9011
172567,89.01099
172600,89.01099
172633,89.01099
172667,89.01099
172700,89.01099
172733,89.01099
172767,89.01099
172800,89.01099
172834,89.01099
172867,89.01099
172900,89.01099
172934,89.01099
172967,89.01099
173000,89.01099
173034,89.01099
173067,89.01099
173100,89.01099
173134,89.01099
173167,89.01099
173200,89.01099
173234,89.01099
173267,89.01099
173300,89.01099
173334,89.01099
173367,89.01099
173400,89.01099
173434,89.01099
173467,89.01099
173500,89.01099
173534,89.01099
173567,89.01099
173600,89.01099
173634,89.01099
173667,89.01099
173700,89.01099
173734,89.01099
173767,89.01099
173800,89.01099
173834,89.01099
173867,89.01099
173900,89.01099
173934,89.01099
173967,89.01099
174000,89.01099
174034,89.01099
174067,89.01099
174100,89.01099
174134,89.01099
174167,89.01099
174200,89.01099
174234,89.01099
174267,89.01099
174300,89.01099
174334,89.01099
174367,89.01099
174400,89.01099
174434,89.01099
174467,89.01099
174500,89.01099
174534,89.01099
174567,89.01099
174600,89.01099
174634,89.01099
174667,89.01099
174700,89.01099
174734,89.01099
174767,89.01099
174800,89.01099
174834,89.01099
174867,89.01099
174900,89.01099
174934,89.01099
174967,89.01099
175000,89.01099
175034,89.01099
175067,89.01099
175100,89.01099
175134,89.01099
175167,89.01099
175200,89.01099
175234,89.01099
175267,89.01099
175300,89.01099
175334,89.01099
175367,89.01099
175400,89.01099
175434,89.01099
175467,89.01099
175500,89.01099
175534,89.01099
175567,89.01099
175600,89.01099
175634,89.01099
175667,89.01099
175700,89.01099
175734,89.01099
175767,89.01099
175800,89.01099
175834,89.01099
175867,89.01099
175900,89.01099
175934,89.01099
175967,89.01099
176000,89.01099
176034,89.01099
176067,89.01099
176100,89.01099
176134,89.01099
176167,89.01099
176200,89.01099
176234,89.01099
176267,89.01099
176300,89.01099
176334,89.01099
176367,89.01099
176400,89.01099
176434,89.01099
176467,89.01099
176500,89.01099
176534,89.01099
176567,89.01099
176600,89.01099
176634,89.01099
176667,89.01099
176700,89.01099
176734,89.01099
176767,89.01099
176800,89.01099
176834,89.01099
176867,89.01099
176900,89.01099
176934,89.01099
176967,89.01099
177000,89.01099
177034,89.01099
177067,89.01099
177100,89.01099
177134,89.01099
177167,89.01099
177200,89.01099
177234,89.01099
177267,89.01099
177300,89.01099
177334,89.01099
177367,89.01099
177400,89.01099
177434,89.01099
177467,89.01099
177500,89.01099
177534,89.01099
177567,89.01099
177600,89.01099
177634,89.01099
177667,89.01099
177700,89.01099
177734,89.01099
177767,89.01099
177800,89.01099
177834,89.01099
177867,89.01099
177900,89.01099
177934,89.01099
177967,89.01099
178000,89.01099
178034,89.01099
178067,89.01099
178100,89.01099
178134,89.01099
178167,89.01099
178200,89.01099
178234,89.01099
178267,89.01099
178300,89.01099
178334,89.01099
178367,89.01099
178400,89.01099
178434,89.01099
178467,89.01099
178500,89.01099
178534,89.01099
178567,89.01099
178600,89.01099
178634,89.01099
178667,89.01099
178700,89.01099
178734,89.01099
178767,89.01099
178800,89.01099
178834,89.01099
178867,89.01099
178900,89.01099
178934,89.01099
178967,89.01099
179000,89.01099
179034,89.01099
179067,89.01099
179100,89.01099
179134,89.01099
179167,89.01099
179200,89.01099
179234,89.01099
179267,89.01099
179300,89.01099
179334,89.01099
179367,89.01099
179400,89.01099
179434,89.01099
179467,89.01099
179500,89.01099
179534,89.01099
179567,89.01099
179600,89.01099
