B,G,R,Time[ms]
111.53945707851824,99.62770037860979,79.92299126475464,0.0
111.72252604488877,99.63631189527605,80.1657716958254,33.333333333333336
111.6399000272203,99.69181658459331,80.02870505555418,66.66666666666667
112.05485714285713,99.8415652173913,80.4040745341615,100.0
112.06809937888198,99.84342857142856,80.41115527950309,133.33333333333334
112.47995943719104,100.2553682342502,80.34488528330587,166.66666666666666
111.64493971501643,99.54638899037876,80.44559736938254,200.0
112.14949237945572,99.9109980293846,80.36112150465216,233.33333333333331
112.57017124751678,100.17504463499887,80.59380893705837,266.6666666666667
111.6327793189797,99.45130483882843,80.12390445093659,300.0
111.5887118552525,99.46002013109764,80.13257064296762,333.3333333333333
112.59533940233524,100.25662972491587,80.9234613101128,366.6666666666666
112.1376397515528,99.74273291925466,80.29734161490683,400.0
112.3428148148148,99.95350617283951,80.76083950617283,433.33333333333337
112.85690585846581,100.89778636161046,81.2746991531719,466.66666666666674
111.81509415360348,99.65880410135068,80.27043281080547,500.0
111.8345657103421,99.66659272404614,80.30301685891746,533.3333333333334
112.9557861328125,101.04892578125,81.6300537109375,566.6666666666666
112.2655652173913,99.86439751552795,80.5111552795031,600.0
112.1720248447205,99.86009937888198,80.38951552795031,633.3333333333333
112.11263587624808,99.90148049776205,80.50880428901678,666.6666666666666
111.98477694161629,99.83921105700657,80.41148984309675,700.0
111.93546311647819,99.7031006409146,80.27361362005395,733.3333333333333
112.07594466853085,99.78340055925369,80.29558783499544,766.6666666666667
111.93528989631537,99.81022493875427,80.15102323624755,800.0
111.87090926905742,99.72315304722711,80.2275377229081,833.3333333333335
111.95437740313514,99.80920339150153,80.30301685891746,866.6666666666667
111.9048604949226,99.54739721975749,80.28364389233954,900.0
112.05847417782287,99.72255079062631,80.38543960802754,933.3333333333336
111.81815946092176,99.75020904038168,80.22684570360529,966.6666666666664
111.99975504605136,99.84999020184206,80.60812267293748,1000.0
111.9792098765432,99.97375308641978,80.37002469135803,1033.3333333333335
112.06404968944099,99.87361490683227,80.45575155279505,1066.6666666666667
112.00004938271604,99.92750617283951,80.45962962962962,1100.0
111.95776397515527,99.84824844720495,80.28467080745342,1133.3333333333333
112.29242435580834,100.07645488787449,80.65399486143332,1166.6666666666667
112.2101075107885,100.05762179151388,80.5083189902467,1200.0
112.40734780094047,100.14617647798426,80.52302160082479,1233.3333333333335
112.3440792616994,100.11195212110545,80.54369200593456,1266.6666666666665
112.71316370571114,100.4077587072167,80.86048379002308,1300.0
112.70781893004116,100.41435812506272,80.90040650406505,1333.3333333333333
112.51392652815416,100.34675800461709,80.64925223326307,1366.6666666666667
112.70944996487002,100.4353106494028,80.91631536685738,1400.0
112.419477065141,100.34981933152665,80.52735119943793,1433.333333333333
112.52339181286553,100.45664017593842,80.78712450642277,1466.6666666666665
111.88042920343169,100.17642314178869,80.66719624569208,1500.0
112.07361963190183,100.3240490797546,80.78554601226993,1533.3333333333335
111.89144512610771,99.97950141201677,80.70788294868049,1566.666666666667
112.00980609554784,100.1819548131175,80.58868603247345,1600.0
112.11197877931481,100.0401854330904,80.6576924983886,1633.333333333333
112.02139251262058,99.93222372169741,80.2954465936922,1666.666666666667
112.12161489446436,100.02182895260852,80.60984169653524,1700.0
112.10127937076862,100.00557546794106,80.62151533253683,1733.3333333333335
111.99641577060932,99.91081740342493,80.47038032656313,1766.6666666666665
111.93342330184437,99.86694656870097,80.4025591043135,1800.0
111.85727797690164,99.79821286340105,80.4352847471127,1833.333333333333
111.81407839948751,99.77027126912556,80.57259713701431,1866.666666666667
111.53153896136351,99.62875493577248,80.04415954415954,1900.0
111.48822911980808,99.6488229119808,79.99055330634279,1933.333333333333
111.72729988052568,99.70875647152529,80.36663679808841,1966.6666666666665
112.37605807086616,100.84645669291338,81.24328248031495,2000.0
112.24220002466394,100.4775681341719,81.18209396966334,2033.333333333333
112.00887902330744,100.47665556788752,81.06114194105315,2066.666666666667
112.10092489826118,100.3992354174374,81.06022937476878,2100.0
112.25231515871836,100.5494230673996,81.1923191204873,2133.333333333333
112.02299910296024,100.3105501843915,80.77663709757798,2166.6666666666665
111.9489418121779,100.11372392054837,80.6883224095662,2200.0
111.88828398836607,100.18706341511921,80.78482114003033,2233.333333333333
111.93888339920949,100.32164031620552,80.94216897233201,2266.6666666666665
112.1108382936508,100.42819940476193,80.8969246031746,2300.0
112.1074652777778,100.43144841269842,80.87504960317459,2333.333333333333
112.10189621261787,99.97185939785165,80.61909324726409,2366.6666666666665
111.9658935540806,100.18301141024686,80.71506699480449,2400.0
112.0942899047903,100.2321823650782,80.80478285728492,2433.333333333333
111.8239736542366,100.14212846035757,80.60914673401673,2466.666666666667
112.03227097613448,100.09633761945265,80.68932305998901,2500.0
112.03587331765648,100.11715114824636,80.68982338520037,2533.333333333333
111.93823485265423,100.10536848951818,80.54705558613098,2566.666666666667
111.82849097976677,99.99421907704573,80.48507425495863,2600.0
111.77788298614573,99.97630319944186,80.49494169241503,2633.333333333333
112.14247607860406,100.44277219000072,81.10973252086241,2666.6666666666665
111.9959551116044,100.15752867184608,80.56399062769762,2700.0
111.96569868453709,100.03447505584512,80.45105485232067,2733.333333333333
112.14091981132076,100.28169221698114,80.86482900943396,2766.666666666666
112.02215998427674,100.187106918239,80.72553066037736,2800.0
112.37974745258644,100.48664131441666,81.26473599531958,2833.333333333333
112.32731217395543,100.72105211837551,81.20632831163766,2866.666666666666
112.20851598285972,100.28340639314386,81.00251194404767,2900.0
112.39041801589636,100.50991070552448,81.29423020312039,2933.333333333333
112.22037937743193,100.66220817120623,81.16201361867705,2966.666666666667
112.12222709765491,100.35500463166107,81.04090488030812,3000.0
112.032811662035,100.39771342206622,80.98688508605139,3033.333333333333
112.11968453322784,100.20975079113924,80.86019086234177,3066.666666666667
112.08392295597484,100.33377555031448,80.86672071540879,3100.0
112.08598663522017,100.34185829402516,80.87045499213836,3133.333333333333
112.16924626572329,100.39534198113206,80.98926395440252,3166.666666666666
112.16962890625,100.5968017578125,81.1192626953125,3200.0
112.1211819066148,100.44944066147859,81.11128404669263,3233.333333333333
112.2354206443193,100.633637044735,81.27418614205959,3266.666666666666
112.31713130145893,100.46824594347343,81.5043574558236,3300.0
112.50491819126567,100.61403678372042,81.62222974116055,3333.333333333333
112.14450056794836,100.48848394035332,81.30028759939097,3366.666666666666
112.25856031128409,100.22920719844359,81.33959143968872,3400.0
111.98539020629907,100.20864841054257,80.91464160732204,3433.333333333333
112.10711401512371,100.22330714827592,81.12828230917945,3466.666666666667
112.02530406480189,100.1682206396985,80.98299194870665,3500.0
112.00117465677995,100.16733964711351,80.9976751584563,3533.333333333333
112.32834610849058,100.33977004716982,81.19034984276729,3566.666666666667
111.24558024691359,99.30407407407408,79.91024691358024,3600.0
111.22256652402737,99.1849146623383,79.92034331808568,3633.333333333334
111.23977639751551,99.17637267080744,79.7575652173913,3666.666666666666
111.26937585733882,99.28049676660788,80.14626200274348,3700.0
111.41227160493828,99.32525925925924,80.08274074074073,3733.333333333334
111.10915344831854,99.0590185840489,79.71668605082775,3766.666666666666
111.34457261165336,99.17659962535738,80.10536823425022,3800.0
111.01648066120613,99.07562297394274,79.60003464403256,3833.333333333334
111.25231360223505,99.05190950135948,79.92396916859987,3866.666666666666
111.20434281707071,99.173862953316,79.79144960929673,3900.0
111.02132754620968,99.0371174137544,79.65960737359377,3933.333333333333
110.97228477394769,98.95882309272228,79.76424735839251,3966.666666666667
110.9579817376457,98.92331295934277,79.77122565638071,4000.0
111.08208161144243,98.92368414540596,79.8290316992898,4033.333333333333
110.76976686507936,98.59950396825396,79.4002728174603,4066.666666666666
110.9550298804781,98.7815986055777,79.59701195219124,4100.0
110.9519920318725,98.7780129482072,79.58829681274901,4133.333333333334
111.030325,98.9191,79.54165,4166.666666666667
111.09823602484472,98.99900621118013,79.85247204968944,4200.0
110.89740417213136,98.79589715671476,79.63376308430874,4233.333333333333
111.02735615079365,98.7892113095238,79.75508432539681,4266.666666666667
110.53205018044338,98.67770603687427,79.39533056735327,4300.0
110.546338349741,98.6645471730538,79.4339724547664,4333.333333333333
110.8784136843143,98.8059252686582,79.7755348516218,4366.666666666666
110.91804211724528,98.97161663903393,79.68944099378882,4400.0
110.9159272404614,98.8636498077492,79.83131223503894,4433.333333333334
111.54772693690587,99.81300792986258,80.5525538097818,4466.666666666667
111.69186349104069,99.65481176733006,80.54583756722596,4500.0
111.67674539641628,99.64172594116337,80.54739894421176,4533.333333333333
111.54192173288062,99.55703982750502,80.38035639049295,4566.666666666666
111.69541651055326,99.57164980641936,80.39977519670288,4600.0
111.60554514799549,99.55069314349943,80.2365929811415,4633.333333333334
111.93937506229445,99.85096680952854,80.65247184291836,4666.666666666667
111.9103458586664,99.86477125485895,80.51166151699391,4700.0
111.9241503039968,99.86063490481408,80.50707664706468,4733.333333333333
112.25919053111991,99.81593861276896,80.69221124429511,4766.666666666667
111.95346254795072,99.80547143145569,80.21171512214819,4800.0
112.21856662821608,99.95002256883495,80.75241988063594,4833.333333333333
112.13285520838558,100.07660865640206,80.59330959426251,4866.666666666666
112.5098321706602,100.16954807400668,80.73349509655242,4900.0
112.52646345162269,100.17374380750178,80.76316853705389,4933.333333333334
112.58476920344101,100.31085847692034,80.75560179663512,4966.666666666667
112.63823172581137,100.3217824284703,80.96587807097363,5000.0
112.20991045991043,99.94897232397233,80.3357498982499,5033.333333333333
112.53041679436102,100.14978547349064,80.54778322607008,5066.666666666666
112.48802900229099,100.25213363208378,80.74444248634222,5100.0
112.64225053078556,100.3537559397432,80.86742998685673,5133.333333333334
112.76920938226671,100.39485390759278,80.96239005156201,5166.666666666667
112.58354522796508,100.28488708743484,80.7257621912842,5200.0
112.91509102763428,100.47886052460005,81.27112693715834,5233.333333333333
112.57976888799378,100.34314342539213,80.83862440522645,5266.666666666667
113.50810731132076,101.37102004716982,82.19521422955975,5300.0
113.50226022012579,101.37986438679243,82.20602397798744,5333.333333333333
112.92897503930818,100.75343946540882,81.47663620283019,5366.666666666666
113.23363797169813,100.96056898584905,81.76906446540879,5400.0
113.4638723341378,101.2994138797222,81.90929911835687,5433.333333333334
113.73335489649679,101.40968351910827,81.97718451433121,5466.666666666667
113.72611464968149,101.4431157322323,81.74648170992674,5500.0
113.74706074872236,101.42916844993832,81.76083180181767,5533.333333333332
113.96802648872713,101.37850065716309,81.8942220200182,5566.666666666666
113.92317851091394,101.66236419814614,82.12727997607894,5600.0
113.33061438299784,100.76030831400135,81.30522088353413,5633.333333333334
114.04275889564435,101.7657231137247,82.2420512309379,5666.666666666668
113.29577639751551,100.66631055900619,81.37903105590063,5700.0
113.32872049689439,100.66921739130434,81.40571428571428,5733.333333333332
113.07725925925924,100.71204938271605,81.222,5766.666666666668
113.1683950617284,100.71683950617285,81.45888888888888,5800.0
113.05135802469135,100.73886419753086,81.30143209876545,5833.333333333332
113.10441975308642,100.75990123456788,81.4438024691358,5866.666666666666
113.20690168079727,100.94704744905547,81.38043532153306,5900.0
113.91474609375,101.91560058593753,82.4933349609375,5933.333333333334
114.01711425781252,101.9302978515625,82.6649658203125,5966.666666666668
113.9865478515625,101.9718994140625,82.553271484375,6000.0
114.03620098039215,101.8022794117647,82.54845588235294,6033.333333333332
114.02642004655078,101.76306145694052,82.3453672064577,6066.666666666666
114.44990118577076,102.20051877470355,82.8209486166008,6100.0
114.48935276679842,102.21012845849802,82.84533102766798,6133.333333333334
114.424791400436,102.18389335738806,82.40256583727981,6166.666666666668
114.57851572327044,102.24093081761005,82.31451572327046,6200.0
114.02263007840341,101.49915996334387,81.51094593218613,6233.333333333332
114.13679995893436,101.31207330219186,81.48683332477799,6266.666666666668
113.96079032794009,101.39772001124659,81.4288525931038,6300.0
113.9887485999389,101.48426840443943,81.54884940433764,6333.333333333332
114.07717842323652,101.10726141078838,81.2170643153527,6366.666666666666
113.92247942386831,101.24061213991767,81.26213991769548,6400.0
114.02297643442623,101.23019979508196,81.5485143442623,6433.333333333334
114.35304352211409,101.95557012456504,82.39343890261738,6466.666666666668
114.4491852761364,101.70112296319034,82.21988591307907,6500.0
114.48440897347349,101.69572557746912,82.21633028931011,6533.333333333332
113.99154466452671,101.01359638821472,81.1071531094235,6566.666666666666
114.24893655888724,101.11127639030244,81.2509981993267,6600.0
114.06806023121688,101.08614525431248,81.02648816514002,6633.333333333334
114.39473140495869,101.33411673553721,81.7407541322314,6666.666666666668
114.11643518518518,101.55673868312758,81.43083847736625,6700.0
114.01849066390041,101.41426348547718,81.09701763485477,6733.333333333332
114.24710743801651,101.49677169421487,81.47432851239671,6766.666666666668
114.17502572016458,101.57806069958849,81.4380658436214,6800.0
114.33077079727116,101.68473169738316,81.74218511353224,6833.333333333332
114.2591894919051,101.64168618266979,81.63949699623257,6866.666666666666
114.33822930455143,101.61707056307912,81.70950005091132,6900.0
114.38364219529579,101.61869972507893,81.70359433866204,6933.333333333334
114.14964904307428,101.59238499217292,81.74476089481392,6966.666666666668
114.22802100691817,101.61687623087411,81.82217340806949,7000.0
114.12394473317276,101.47428064393459,81.70219292686019,7033.333333333332
114.2053492204335,101.51441247306377,81.79318037774115,7066.666666666666
113.96489551638292,101.47534387808987,81.67807478562626,7100.0
113.95777906304222,101.45663489828249,81.70938215102973,7133.333333333334
114.15878907236278,101.4042316820684,81.80182295611776,7166.666666666668
113.69257162893207,101.36480665197357,81.57844119414949,7200.0
113.89046194080518,101.17341011391356,81.58694394850001,7233.333333333332
113.58676943800043,101.17752999575943,81.43106587842051,7266.666666666668
113.7227668437726,101.18556212427349,81.59390356456882,7300.0
113.72758113198134,101.2002544338846,81.61707700366684,7333.333333333332
113.74614630221035,101.28365227449896,81.44715467598762,7366.666666666666
113.68419858870968,101.01600302419355,81.29367439516129,7400.0
113.75384615384615,101.24291497975707,81.28884109311741,7433.333333333334
113.74236752985512,101.14208234665035,81.2689379471902,7466.666666666668
113.68590587044537,101.21882591093114,81.26766194331985,7500.0
113.65792004048582,101.2137145748988,81.26295546558704,7533.333333333332
113.60569779116466,101.16724397590365,81.34703815261045,7566.666666666666
113.63760632592482,101.19137419242186,81.51031455012597,7600.0
113.88554477630942,101.03870343492984,81.3274259669493,7633.333333333334
113.47278225806451,100.97147177419356,81.07182459677419,7666.666666666668
113.86705879357321,100.94533139816158,81.26262317622795,7700.0
113.67090180564009,100.80987522824104,81.1587289511057,7733.333333333332
113.50073544329479,100.87979306147292,80.95919557719618,7766.666666666668
113.56487117062285,100.86652972205316,81.05132886995335,7800.0
113.70412449392711,101.12866902834007,81.24076417004048,7833.333333333332
113.79956983805668,101.12841599190284,81.43448886639676,7866.666666666666
113.53773584905659,100.88374923919659,81.00981436396835,7900.0
113.51516534794077,100.8876039764658,81.01087948874013,7933.333333333334
113.55807466017448,100.93796916210184,81.1451866504362,7966.666666666668
113.53044354838707,101.05524193548388,81.21502016129033,8000.0
113.62716733870968,101.09594254032257,81.32381552419355,8033.333333333332
113.54024697580644,101.08298891129031,81.19473286290322,8066.666666666666
113.77328629032257,101.04362399193548,81.40342741935484,8100.0
113.85630020080322,101.13820281124498,81.58195281124499,8133.333333333332
113.73663967611336,101.22340587044529,81.16624493927125,8166.666666666666
113.74427723881549,101.10253863977795,81.11845288111425,8200.0
113.49789511057008,100.9510296206127,80.91326841144247,8233.333333333332
113.67903225806452,101.00498991935484,81.31685987903226,8266.666666666668
113.67932167137728,101.12514959386856,81.11590660250044,8300.0
113.54500547449902,101.10195299569679,81.0184605199501,8333.333333333334
113.4571414079935,100.9254919862041,81.00641610874415,8366.666666666668
113.610292058157,101.12711022840121,81.0662287067451,8400.0
113.71540991902832,101.20457995951416,81.33476720647774,8433.333333333334
113.48329133064516,101.07419354838707,81.15733366935484,8466.666666666666
113.71056399243237,101.05762642532083,81.01871452676791,8500.0
113.71358081505345,101.07230147773176,81.03461676126194,8533.333333333334
113.4785730654648,100.93310926081531,80.81771191403763,8566.666666666666
113.75143228172027,100.91380846892271,81.28375728872254,8600.0
113.52723676202068,101.05660377358492,81.14374112396024,8633.333333333332
113.8022958531472,101.03620187145269,81.31507899984659,8666.666666666666
113.52099406717085,100.91594734295826,80.99908333969903,8700.0
113.47541567998371,100.92236396506506,80.93970412242506,8733.333333333332
113.78703277598814,101.054302807179,81.1534233266861,8766.666666666668
113.69642583218284,101.05133711714475,81.06851766630874,8800.0
113.75187912256482,101.04174975712021,81.17254691414838,8833.333333333334
113.64451476793249,100.93984768961614,80.84115467736956,8866.666666666668
113.59687563400284,101.01217285453438,81.13968350578209,8900.0
113.59510042604992,101.01792960032459,81.10925136944614,8933.333333333334
113.72069869885162,101.1832302090495,81.14401751839686,8966.666666666666
113.7477373830342,101.0817865725827,81.18154624942477,9000.0
113.70139735772358,101.18175813008128,81.24364837398375,9033.333333333334
113.69681460545412,100.98120846383013,81.21460036157156,9066.666666666666
113.50877192982456,100.9901713645507,80.98897461360222,9100.0
113.50421409110584,100.99197922236652,80.91487790594047,9133.333333333332
113.66372489348751,101.09269121525664,81.21687969162102,9166.666666666666
113.54755021302496,101.13580340839928,81.09591194968553,9200.0
113.63395212010548,101.11904037330088,81.28471799553662,9233.333333333332
113.53768512882938,101.1046104686549,81.22210387502538,9266.666666666668
113.51241443762473,100.97044782905206,81.18158167260236,9300.0
113.5219620620848,100.97395872799372,81.21717056906874,9333.333333333334
113.37624712687227,100.98135939986359,81.04074158268294,9366.666666666668
113.437649970953,101.01338688085676,81.10578161703418,9400.0
113.57438121322784,101.1131821870562,81.16996348143641,9433.333333333334
113.66559722964888,101.02021745219362,81.15331143533727,9466.666666666666
113.53466758332695,101.05624729457895,81.06739999490746,9500.0
113.5460749115168,101.05410842054337,81.00807170320577,9533.333333333334
113.72528200035649,101.03557151223488,81.21668831003488,9566.666666666666
113.52249637155298,101.08112443663586,80.94133374073793,9600.0
113.6010095833547,100.975093527392,80.89056013939425,9633.333333333332
113.82843951027183,101.21083212284708,80.84846441170367,9666.666666666666
113.95074185515669,101.18261050010376,80.97940444075535,9700.0
113.93559348412536,101.18912118696824,81.00560282216226,9733.333333333332
113.85802660068049,101.31980101041344,81.04595834622124,9766.666666666668
113.76051854704146,101.215941470928,81.10748299319728,9800.0
113.74231732883364,101.31032366927442,81.02850641713964,9833.333333333334
113.87604715707992,101.44674458279222,81.35851602882387,9866.666666666668
113.80152886434523,101.29477936288795,81.08784578411823,9900.0
113.75870532290227,101.32021782481978,81.08283479061205,9933.333333333334
113.82939612414991,101.26059722861379,81.24827427519558,9966.666666666666
113.83428818781351,101.36052758892878,81.27097497008124,10000.0
113.85714648001623,101.18175593426659,81.46462264150944,10033.333333333334
113.49213836477988,101.16697098803007,81.13324203692433,10066.666666666666
113.6108206410548,101.28632770074007,81.41999444318154,10100.0
113.76701550683676,101.3325949125353,81.45117510758026,10133.333333333332
113.70733073612915,101.3527869019428,81.32673847172357,10166.666666666666
113.87189672293944,101.36276831410892,81.41275176329793,10200.0
113.85748478598528,101.39248338553206,81.32844447839483,10233.333333333332
113.93723423216969,101.44852697782193,81.42471927278281,10266.666666666668
113.93066391113408,101.4214414879876,81.10997158357014,10300.0
113.95928635605185,101.50155307405979,81.27706327814144,10333.333333333334
114.12062636375305,101.53104864587343,81.37610062893081,10366.666666666668
114.0270055191888,101.52850725195738,81.26125016044153,10400.0
114.34655634601505,101.68955562429116,81.42769873182803,10433.333333333334
114.20086471844559,101.48346095744127,80.98851383028598,10466.666666666666
114.43362212077196,101.48843120979456,81.49719858891886,10500.0
114.438317078232,101.50775575845611,81.4957719443868,10533.333333333334
114.14627796680072,101.62581193937521,81.34096298587484,10566.666666666666
114.2054335498505,101.63828745231469,81.50657284256108,10600.0
114.193525105681,101.63096711001137,81.44342200226829,10633.333333333332
114.31616661511495,101.61733168367873,81.57235281987833,10666.666666666666
114.03244639628004,101.39124257297856,81.17197106690777,10700.0
114.16881095663,101.52171093587882,81.22234903506953,10733.333333333332
114.12496804213323,101.59004448535052,81.65488060540983,10766.666666666668
114.17058459635014,101.6203216826477,81.55067532735332,10800.0
114.28675636663574,101.60673780802144,81.61650685637693,10833.333333333334
114.4196236767865,101.72505629319046,81.54833449802005,10866.666666666668
114.51083158630327,101.7938504542278,81.64471879286694,10900.0
114.60951712666979,101.83658194292843,81.60263007432819,10933.333333333334
114.48272381396072,101.79229753862877,81.52133964852344,10966.666666666666
114.57941326530613,101.92908163265308,81.98196428571428,11000.0
114.05981784501392,101.68313265411136,81.32263044149428,11033.333333333336
114.32034731240292,101.80801059251905,81.85962366002087,11066.666666666664
114.07454005022294,101.74286373187107,81.51893609388613,11100.0
114.03241741278171,101.63113615313368,81.37375218688895,11133.333333333332
114.23638211382116,101.78053861788618,81.84395325203252,11166.666666666664
114.15274390243904,101.75614837398372,81.77197662601625,11200.0
114.17978217518022,101.68062586286241,81.70598762591398,11233.333333333332
114.09526000920387,101.67937311448586,81.57501150483203,11266.666666666668
114.1431769064526,101.62635072553257,81.46025007718431,11300.0
114.19092907910208,101.69737178503858,81.64352917114077,11333.333333333336
114.08636293910108,101.67612619522421,81.54366722912513,11366.666666666668
114.22024797675869,101.6594988586844,81.53361693297366,11400.0
114.22731724920095,101.74010207237859,81.47713681822869,11433.333333333336
114.24525962283647,101.52219064841127,81.61214156548695,11466.666666666664
114.22010001031036,101.7667285287143,81.4534488091556,11500.0
114.21852768326632,101.76440870192805,81.44424682957006,11533.333333333336
114.2909317285744,101.79425191948538,81.42368748703049,11566.666666666664
114.23703474585008,101.89785029384471,81.46192906485204,11600.0
114.30724816991443,101.8631044437571,81.60794927312094,11633.333333333332
114.05847773071491,101.69949942241048,81.44274162495186,11666.666666666664
114.10033583053476,101.6047791268406,81.37858434513045,11700.0
114.09943167140274,101.60599328338932,81.41803151640403,11733.333333333332
114.02438646344612,101.57561353655386,81.34567295272541,11766.666666666668
114.21591915403448,101.58631557014117,81.31098609157681,11800.0
114.12973381257488,101.58014273063499,81.19401468979528,11833.333333333336
114.26636750363147,101.66453102303385,81.48490350695165,11866.666666666668
114.2366932973646,101.62142041917411,81.33284913882551,11900.0
114.2295860136958,101.62850176385143,81.29884312097946,11933.333333333336
114.40783876322891,101.64831915335131,81.5617088607595,11966.666666666664
114.02617988444037,101.68389834841743,81.58434320192258,12000.0
114.26863594184972,101.72035776884216,81.65166512011548,12033.333333333336
114.16857407980206,101.7245592329106,81.46497061552738,12066.666666666664
114.32676049077223,101.74479327765751,81.726183111661,12100.0
114.32472419837096,101.74657181152695,81.72517785338695,12133.333333333332
114.0952637658837,101.64163778719036,81.50771402900783,12166.666666666664
114.17150558336542,101.63247336670516,81.61460659735592,12200.0
114.1082787832114,101.62631241175717,81.44351174432036,12233.333333333332
114.00041164968613,101.35126582278481,81.35440465164146,12266.666666666668
113.97453597177478,101.43081761006286,81.37068568798895,12300.0
113.96484634657669,101.45221659763769,81.3005573451961,12333.333333333336
114.13517546567871,101.31936297211071,81.3582381393434,12366.666666666668
113.99415972007822,101.31468045693116,81.25756406298241,12400.0
114.03821769121528,101.3201207141408,81.64686041793469,12433.333333333336
113.833513430071,101.2986003910672,81.09208088916333,12466.666666666664
114.17450271247739,101.41400154998709,81.43071557737021,12500.0
114.00169805495524,101.2885149737573,81.32721004425235,12533.333333333336
113.86767795828422,101.38087428893559,81.23758519961052,12566.666666666664
113.91926520531028,101.28138828856643,81.26232376247812,12600.0
113.86322939178758,101.3100493979623,81.14500360193476,12633.333333333332
114.01477731758447,101.37835557600859,81.42698266605308,12666.666666666664
114.00899933527636,101.35386306693256,81.38127013345606,12700.0
113.99874725162346,101.34626987779312,81.37976172214552,12733.333333333332
114.06759727974638,101.35958991665387,81.46341463414635,12766.666666666668
114.02875006405986,101.38784400143494,81.4352482960078,12800.0
114.03993001955335,101.35983328187712,81.32718431614695,12833.333333333336
113.84712923513901,101.38554980726313,81.42011564211808,12866.666666666668
114.2057733868478,101.30745085931872,81.58050324174128,12900.0
114.26888702161793,101.49115168181706,81.90054235734473,12933.333333333336
113.94377816820715,101.44620986428335,81.5015150357752,12966.666666666664
114.25487037889246,101.51332003886075,81.80607966457023,13000.0
113.91057469508313,101.40776105721487,81.45198991673671,13033.333333333336
114.04593486619305,101.34540269396277,81.57943116135769,13066.666666666664
113.91981768645122,101.35742112901993,81.44175387670919,13100.0
113.88615588317673,101.36378682555443,81.41863366689583,13133.333333333332
114.03363634048836,101.34968044203396,81.60150739693937,13166.666666666664
113.96880912205349,101.26601728281432,81.46042337781869,13200.0
114.00368154624942,101.26944316612978,81.52883877895383,13233.333333333332
113.93981694533926,101.25205808661859,81.34529835864394,13266.666666666668
114.01794753796595,101.29636447307873,81.50017896405379,13300.0
114.09507804343953,101.36768263183356,81.7205459221348,13333.333333333336
113.9198496701948,101.30334407117657,81.3800940839597,13366.666666666668
114.241056196369,101.42716370025208,81.82680212868894,13400.0
114.09428828135029,101.51885508920547,81.45393402644076,13433.333333333336
114.12831722656848,101.34220483714272,81.54246561333537,13466.666666666664
113.94833600692587,101.47320041758972,81.43648307997861,13500.0
114.10788975814285,101.62141432735079,81.48266605307563,13533.333333333336
114.20343099657411,101.58367847829422,81.73595132177736,13566.666666666664
114.19542874674029,101.55215523853352,81.62670655008436,13600.0
114.3517115166512,101.56619239096813,81.65566037735849,13633.333333333332
114.28861222806476,101.50677904938654,81.53807093514796,13666.666666666664
114.16742395071236,101.41391348992428,81.52499037350789,13700.0
114.30911496161028,101.4536210832123,81.43810956630006,13733.333333333332
114.1030676421512,101.3997176228982,81.45054550121934,13766.666666666668
114.15605185470415,101.41512001026823,81.54254909510973,13800.0
114.08848671544092,101.41573610576306,81.45673212681298,13833.333333333336
114.30209215761776,101.43152355281737,81.59122063919908,13866.666666666668
114.03252032520322,101.44380981784501,81.34174642379334,13900.0
113.99907378820623,101.44859524544613,81.28262323762478,13933.333333333336
114.15738610216292,101.5265633788413,81.59975967684206,13966.666666666664
113.8975632113666,101.40931428716931,81.48743411504087,14000.0
113.9875492151148,101.28539653321062,81.53446336350156,14033.333333333336
113.90818119318615,101.35846510325159,81.52460978280244,14066.666666666664
114.0194998206324,101.26659150310049,81.55634705068418,14100.0
114.08234665037048,101.32342830952562,81.75922389427849,14133.333333333332
113.98604639319636,101.30942377714969,81.52634125225983,14166.666666666664
114.051460290785,101.28536144424923,81.63707890917424,14200.0
113.94596796781505,101.29012298525706,81.5646627453976,14233.333333333332
114.01079622132255,101.28301886792453,81.62775952944772,14266.666666666668
114.10280206575649,101.474740502122,81.64419389476913,14300.0
114.11446029554637,101.43907552283069,81.63808355064683,14333.333333333336
114.10736338376041,101.10713183081198,81.53046207677265,14366.666666666668
113.88722902680263,101.21583047199304,81.34720442781736,14400.0
114.01747552913444,101.22510633936348,81.54753241428791,14433.333333333336
113.87741505662892,101.21257623123049,81.45026392661303,14466.666666666664
113.85606369946915,101.116935483871,81.46763985300123,14500.0
113.85118926092285,101.12022764393629,81.46674663127807,14533.333333333336
113.80001016725129,101.26366224391235,81.40717299578058,14566.666666666664
113.90592750749836,101.25285953942353,81.55386101367496,14600.0
113.92387126531031,101.33270127607237,81.41728591195613,14633.333333333332
113.97281299646393,101.3302670014862,81.43791318608108,14666.666666666664
113.89007328447701,101.31071593296775,81.38492287193154,14700.0
113.88617844513914,101.30902475272896,81.39717111669144,14733.333333333332
113.96071849536207,101.31686567929071,81.48949418336494,14766.666666666668
113.73092919456279,101.22725197808886,81.46639784946238,14800.0
113.95308378981537,101.16466321769121,81.6926607831203,14833.333333333336
113.69484175289105,101.17714039358896,81.36800060864273,14866.666666666668
113.82478697504564,101.18226313653885,81.57078007709474,14900.0
113.84974132684114,101.1703438831406,81.55736457699331,14933.333333333336
113.71774193548387,101.20239906674782,81.41002231689998,14966.666666666664
113.78256238587947,101.20777541083383,81.49173260296206,15000.0
113.89784330201412,101.34344205943016,81.50439233060882,15033.333333333336
114.01099992361164,101.36849744099001,81.65589590813026,15066.666666666664
114.12765250294012,101.49652298409777,81.5776192667587,15100.0
113.95396328266241,101.35512947826751,81.53538054133884,15133.333333333332
114.24014419389476,101.52280513371171,81.7374597330879,15166.666666666664
114.1406401799867,101.53142097458708,81.66623203967889,15200.0
114.05156214192957,101.43892750744786,81.66582639472409,15233.333333333332
113.99908333969904,101.43505716395487,81.5487994296336,15266.666666666668
114.38983484174463,101.55974842767296,81.81569259088819,15300.0
114.38482384823848,101.56851766630872,81.84673007107429,15333.333333333336
114.09618039576624,101.56885002812292,81.44025157232706,15366.666666666668
114.24989178315892,101.65510656176001,81.73340462913451,15400.0
114.14355918824637,101.65166908563135,81.67435642808036,15433.333333333336
114.36881934857084,101.798051848443,81.91624482282559,15466.666666666664
114.3045456869663,101.8004039474357,81.87761415350002,15500.0
114.23783853163908,101.73230650750864,81.66923373122833,15533.333333333336
114.51484689143213,101.80168058562738,81.85135065470669,15566.666666666664
114.32871261712229,101.73353869849826,81.73615710435116,15600.0
114.40816326530613,101.72812219227312,81.87978436657681,15633.333333333332
114.33333333333331,101.70558336542163,81.77494544987806,15666.666666666664
114.40179694519315,101.74686176357336,81.74267744833782,15700.0
114.40621229623925,101.75854190732895,81.73256321396481,15733.333333333332
114.3917,102.11295,82.183775,15766.666666666668
114.61691238255293,101.76136276831413,81.90296132202785,15800.0
114.435260866244,101.79866575000635,81.61599572225192,15833.333333333336
114.52109961452628,101.80515824710895,81.92541590586326,15866.666666666668
114.62669182389938,102.23456603773586,82.18888050314466,15900.0
114.61698113207548,102.2399496855346,82.15169811320756,15933.333333333336
114.62880503144657,102.14664150943396,82.29856603773584,15966.666666666664
114.42078313253012,102.11014056224899,82.14824297188756,16000.0
114.5341583276042,101.97586127874115,81.99788658875055,16033.333333333336
114.4227586382502,101.95378504315944,81.9396531968528,16066.666666666664
114.5441798123518,101.86233116816167,81.78874110733065,16100.000000000002
114.5419174102511,101.78615895413986,81.63981116414195,16133.333333333332
114.50600577379112,101.83467367769873,81.6507114135478,16166.666666666668
114.63078667903908,101.82799773172493,81.74682957005876,16200.0
114.55691308382308,101.77178059593771,81.69842251778535,16233.333333333336
114.6331438904676,101.59718419013174,81.82658227848101,16266.666666666664
114.45629279933596,101.77308570242788,81.61729611952687,16300.0
114.40631348648226,101.69914569984894,81.44759597853832,16333.333333333332
114.32882859514423,101.63189977173687,81.52866258559868,16366.666666666668
114.4384214867512,101.92901330034023,81.74087534797404,16400.0
114.43170324733671,101.87495828520086,81.88122192273136,16433.333333333332
114.31341291233473,101.90527531767424,81.73004749069439,16466.666666666664
114.4142728789629,101.90517263509176,81.7707354639969,16500.0
114.45113592606852,101.89734308817866,81.79273520729045,16533.333333333336
114.52693576657387,101.95221156820291,81.7297659552531,16566.666666666668
114.54946085325831,101.71443454706464,81.65088295046101,16600.0
114.30833679186554,101.65073147956006,81.42096389292384,16633.333333333332
114.41672218520986,101.73704709680729,81.842335878645,16666.666666666668
114.51518987341773,101.79219839834668,81.75523120640662,16700.0
114.34259545127097,101.64883708963673,81.60473911701142,16733.333333333336
114.45042695709976,101.73262770363552,81.9286956077108,16766.666666666664
114.0596469872185,101.72433556502337,81.75139480624873,16800.0
114.41241736278376,101.74265874032696,81.77151130015888,16833.333333333332
114.23236803424534,101.64266742308979,81.44926377678641,16866.666666666668
114.46964773170414,101.66444819966206,81.57522422981931,16900.0
114.47276745092941,101.66720395164437,81.57953984141426,16933.333333333332
114.37008524928959,101.79540170498579,81.62591061741152,16966.666666666664
114.50111082407646,101.78920175665205,81.77920433996384,17000.0
114.41642986308449,101.86566778610178,81.69705502454146,17033.333333333336
114.33098123434065,101.81773789436008,81.82850130388097,17066.666666666668
114.28810332407122,101.7010908716682,81.57612946382629,17100.0
114.27845528455285,101.69525059174644,81.61052794072246,17133.333333333332
114.5053216223198,101.83335055541204,81.73670886075949,17166.666666666668
114.43035391371738,101.78240764660295,81.63425471454404,17200.0
114.64593128390594,101.78920175665205,81.83267889434255,17233.333333333336
114.25693127658484,101.76479782708964,81.60762056065188,17266.666666666664
114.33552022229082,101.58626633734691,81.73780487804878,17300.0
114.35412164248226,101.58088916332198,81.71544715447155,17333.333333333332
114.26780384892456,101.58405372028405,81.56156735617989,17366.666666666668
114.49640919659002,101.71632653061224,81.72578145182123,17400.0
114.24493156323969,101.56149017186372,81.60785221776268,17433.333333333332
114.36086240609241,101.61863229391787,81.69761757744159,17466.666666666664
114.28514459195223,101.62496140784194,81.63512400946793,17500.0
114.27819800349907,101.63489245651951,81.62390655552123,17533.333333333336
114.45857543058727,101.68689043369992,81.71897696617556,17566.666666666668
114.43162481842708,101.67633326416271,81.5447966383067,17600.0
114.53789686656984,101.7208705125545,81.60699833990455,17633.333333333332
114.4782631251297,101.71866569827766,81.4812201701598,17666.666666666668
114.67832601394987,101.83451304572462,81.82309480754327,17700.0
114.70449496254196,101.82195815034876,81.850452079566,17733.333333333336
114.30141687248148,101.60236578707917,81.29762121409074,17766.666666666664
114.48822009816584,101.6911392405063,81.6376130198915,17800.0
114.36497029191423,101.69258589511757,81.56220614828209,17833.333333333332
114.5154482045983,101.69907000774994,81.71761818651511,17866.666666666668
114.39873417721519,101.705864117799,81.5467579436838,17900.0
114.39741668819427,101.68791010074915,81.55316455696203,17933.333333333332
114.49137173856884,101.71596486695944,81.69010591578403,17966.666666666664
114.43236889692587,101.72436063032808,81.59550503745803,18000.0
114.35167747247091,101.59802408150664,81.63512400946793,18033.333333333336
114.21459812699392,101.59869301224657,81.56856540084388,18066.666666666668
114.28473408937911,101.5075604577702,81.62995184091969,18100.0
114.33853041062055,101.62318616857054,81.77732324791603,18133.33333333333
114.35354218120372,101.67648511633949,81.55102040816327,18166.666666666668
114.04817301286322,101.54051145390251,81.55885819709937,18200.0
114.13031285376144,101.72658742410208,81.4412112792014,18233.333333333336
114.26268395595348,101.68858701245243,81.60841823608109,18266.666666666664
114.16010599979415,101.65874241020893,81.57427704023875,18300.0
114.11953277760624,101.67055161057941,81.53833487701965,18333.33333333333
114.224773960217,101.52826143115476,81.50924825626453,18366.666666666668
114.20556756200472,101.62707111248328,81.54386641967686,18400.0
114.33392507975712,101.59334156632706,81.76512812596481,18433.33333333333
114.21835443037978,101.63188226818977,81.66869918699187,18466.666666666664
114.34210661726871,101.62887207986005,81.65990017495112,18500.0
114.32432849644951,101.62668519090256,81.70106514356283,18533.333333333336
114.27117423072966,101.63234537408665,81.5833590614387,18566.666666666668
114.2972882576927,101.62709684058866,81.71310589688176,18600.0
114.20080786250901,101.61657404548728,81.63368323556655,18633.33333333333
114.41947103015335,101.57708140372543,81.78946691365648,18666.666666666668
114.47460508421385,101.63680824354013,81.30262056700492,18700.0
114.39448333947465,101.54613886403116,81.11904511238616,18733.333333333336
114.56438506016563,101.73886544772621,81.57782466010316,18766.666666666664
114.43991248632601,101.766395791009,81.43183830806898,18800.0
114.6283012970777,101.77532947856436,81.58886805229984,18833.33333333333
114.34065677526459,101.693167669641,81.4649823614858,18866.666666666668
114.3252062232432,101.5861699906025,81.47804636107341,18900.0
114.46903095593824,101.68268197426019,81.51309271054494,18933.33333333333
114.40035647820505,101.69893318654819,81.33925716232865,18966.666666666664
114.50798144216404,101.63738827291552,81.53303976304684,19000.0
114.43049985583599,101.61906634164242,81.49587166784619,19033.333333333336
114.56984089538936,101.5971272050536,81.61791302980264,19066.666666666668
114.46417855450859,101.52034531768172,81.25451387061115,19100.0
114.30329480223324,101.42853398338184,81.18211842415664,19133.33333333333
114.60517385402528,101.51602798371096,81.60044899237755,19166.666666666668
114.43789153626379,101.63987837802416,81.34992529684675,19200.0
114.43491907034657,101.64800788545341,81.63872172649928,19233.333333333336
114.45905450787909,101.69690002583313,81.58548178765177,19266.666666666664
114.49302505812452,101.72017566520279,81.71560320330664,19300.0
114.461091512762,101.61374247769248,81.58840008300477,19333.33333333333
114.25110630853143,101.60131727899557,81.49843058557168,19366.666666666668
114.37177112277452,101.61302356694452,81.62840897396316,19400.0
114.42955308705757,101.7952725393955,81.62999225006459,19433.33333333333
114.55461121157323,101.76662361146991,81.7358563678636,19466.666666666664
114.47866891979722,101.68987391134796,81.45074743273105,19500.0
114.47349522087316,101.77135107207441,81.61723068974425,19533.333333333336
114.67648889811164,101.88846233658435,81.66831811579165,19566.666666666668
114.64071902884415,101.8610448225773,81.66600954554887,19600.0
114.6218289847585,101.70674244381296,81.92446396280029,19633.33333333333
114.44277751732041,101.75743605771736,81.46158253893837,19666.666666666668
114.6104860134396,101.70880866802105,81.6207219878106,19700.0
114.60368807626192,101.7107360525082,81.67833515653487,19733.333333333336
114.53434322473541,101.8516549076572,81.60121394480183,19766.666666666664
114.63008404233244,101.85440444075537,81.73521477484955,19800.0
114.55431624818428,101.85938472712179,81.64894168914714,19833.33333333333
114.57568890972547,101.7488930562067,81.63080168776371,19866.666666666668
114.36695891263749,101.66385660925505,81.52106246109152,19900.0
114.41056574528544,101.75347455437871,81.67186773443555,19933.33333333333
114.62725946762517,101.78033025993643,81.62022711882065,19966.666666666664
114.68950877741314,101.96408292962442,81.68612283169246,20000.0
114.67975721103964,101.94659161651795,81.7292228678149,20033.333333333336
114.57042767099026,101.82650935041934,81.55339375944158,20066.666666666668
114.84467731894584,101.94065158746628,81.98910562357338,20100.0
114.86649201079064,101.96228470637062,82.00210105831086,20133.33333333333
114.609184556106,101.97022358522713,81.44714424261488,20166.666666666668
114.77707454289732,101.95876959941656,81.82182111788299,20200.0
114.61682707396172,101.94866094779788,81.53190710325347,20233.333333333336
114.68754576838582,101.91008473689716,81.60254733758761,20266.666666666664
114.6319175645988,101.91013704362379,81.57202636259024,20300.0
114.65632650935042,101.97351148616971,81.66679689534823,20333.33333333333
114.70862634786684,102.0194301192895,81.84961191852894,20366.666666666668
114.56698426067274,101.81336526820023,81.5352950465863,20400.0
114.80060675802908,101.89556962025316,81.7649858771838,20433.33333333333
114.66858457997698,101.88994664713884,81.62051469819018,20466.666666666664
114.71784232365142,101.84087924785965,81.55880035716163,20500.0
114.78536162613578,101.81648195808607,81.60830400756342,20533.333333333336
114.70465885813331,101.85689899679606,81.46662114606859,20566.666666666668
114.92336782394034,101.84799621828878,81.72388255685698,20600.0
114.62807302019041,101.95737001778429,81.54226383512919,20633.33333333333
114.65182059696829,101.8893056206699,81.7434494973173,20666.666666666668
114.63453290093105,101.94037033162464,81.63207448477874,20700.0
114.51945616502579,101.93655258634165,81.60788143980831,20733.333333333336
114.72604351919657,101.98216340621404,81.75983366460927,20766.666666666664
114.6566324929386,101.94484255675279,81.62051469819018,20800.0
114.77212574537089,101.98433413536979,81.75677372110053,20833.33333333333
114.63654285121395,102.06860863249638,81.81715604897282,20866.666666666668
114.76247665490766,102.05335650549908,81.87813861797055,20900.0
114.75171197343849,102.06580722141523,81.8464411703673,20933.33333333333
114.61252334509236,102.0834716746213,81.75238638721727,20966.666666666664
114.73677111433908,102.02772878190494,81.89756692259806,21000.0
114.56199948333763,101.93399638336348,81.86628778093515,21033.333333333336
114.81522074714418,102.05176494802923,82.15990017495112,21066.666666666668
114.42733049761698,101.94055245221136,81.74196689386564,21100.0
114.5756663579294,102.08799012040754,81.73620973551508,21133.33333333333
115.11479334677419,102.64445564516129,82.70370463709678,21166.666666666668
114.82208731593904,102.25784035133042,81.7147248772927,21200.0
115.00802716887928,102.36034784398475,82.06938870021612,21233.333333333336
114.76177420181419,102.19743248091015,81.79516219955927,21266.666666666664
114.91425071457735,102.26383217639854,82.12331563903633,21300.0
114.98567153580849,102.36057009535405,82.31730574152972,21333.33333333333
114.73470953879213,102.23940347376768,81.92545980098741,21366.666666666668
114.88324316047373,102.40917211106571,82.24221621069825,21400.0
114.70984241797986,102.22020149832085,81.77902350813744,21433.33333333333
114.75835701369157,102.19431671402737,81.87424438129682,21466.666666666664
114.67589015349272,101.96120914691448,81.49960843688001,21500.0
114.65328390936621,101.95964289443458,81.48389370366503,21533.333333333336
114.81972316558607,102.0403159411341,82.09632602655141,21566.666666666668
114.53192857877943,102.04674796747969,81.74588350313883,21600.0
114.6358552120553,101.92685516027134,81.80202993112735,21633.33333333333
114.45991921702655,101.94712857956604,81.5264874941743,21666.666666666668
114.56871731137691,101.97079384806587,81.73046450209725,21700.0
114.60998765050941,102.05073582381394,81.9394874961408,21733.333333333336
114.53025625192959,102.06470618503651,81.79736544200885,21766.666666666664
114.64953174848206,102.0784449933107,81.86119687146237,21800.0
114.55402902130287,102.09555418338994,81.83822167335597,21833.33333333333
114.53456669912364,101.98508686516682,81.83285501973046,21866.666666666668
114.54225388202735,101.96779070363348,81.84956183057449,21900.0
114.64322836266338,102.14508078625092,81.85332407121541,21933.33333333333
114.69227589770084,102.04004133298888,81.87620769826918,21966.666666666664
114.49359370175979,101.87200267572297,81.70284038283421,22000.0
114.67673992673993,101.83050758765043,81.57216117216117,22033.333333333336
114.48987341772153,102.0446396280031,81.63962800309997,22066.66666666667
114.5558608058608,101.82216117216116,81.50313971742544,22100.0
114.57925386715195,101.89993500584947,81.69928506434421,22133.33333333333
114.45025347718706,101.92471077603015,81.52796048355648,22166.66666666667
114.54288921374126,101.76179910201523,81.56458181058787,22200.0
114.59369348116695,101.86312285392258,81.48866346884749,22233.333333333336
114.63762266540043,101.78999155851008,81.40453202490241,22266.666666666664
114.62679064437151,101.97171433036414,81.58701880502161,22300.0
114.69986400251072,102.01354744220109,81.5597081284653,22333.33333333333
114.72795185723179,102.10601265822784,81.80600228263125,22366.66666666667
114.63241855156672,102.07973645984644,81.78089333886699,22400.0
114.55715585597295,101.91010009099182,81.63780059794618,22433.33333333333
114.51429777355705,101.81927297668038,81.258494249235,22466.666666666664
114.55499456268448,101.8286209932163,81.74273729998447,22500.0
114.75572598466135,101.94530092291694,81.82784349408553,22533.333333333336
114.36546527885662,101.8414116306768,81.50559266739164,22566.66666666667
114.42874527471388,101.82955310444824,81.66664077468799,22600.0
114.3466677023458,101.80692351509502,81.45880586194397,22633.33333333333
114.45595348358549,101.87794586806628,81.76180920037048,22666.66666666667
114.32306781928577,101.89273952866112,81.58034887310899,22700.0
114.48646344613796,102.02366313614051,81.64146215448206,22733.333333333336
114.63087057607856,101.96339447171272,81.81741152157065,22766.666666666664
114.51927726504614,101.898271155596,81.53100220980112,22800.0
114.44912226192328,101.74820050748278,81.61824866656309,22833.33333333333
114.3482041782443,101.85900998250489,81.7080889163322,22866.66666666667
114.39722743381279,101.67443193662706,81.46635918282259,22900.0
114.48192739889187,101.76282947542852,81.6881052250013,22933.33333333333
114.59385612843471,102.12956673870536,81.85386436142842,22966.666666666664
114.63780556552042,101.93225029467536,82.09278429764774,23000.0
114.37187653111219,101.90848139456922,81.58405322468346,23033.333333333336
114.50772325227571,101.83258980375976,81.86170349931662,23066.66666666667
114.43750483509115,101.88375151499523,81.59792671291163,23100.0
114.4310322597282,101.88261688027023,81.59297557956627,23133.33333333333
114.51638962249494,101.81096266376676,81.5859872611465,23166.66666666667
114.48133188338251,101.80322096214591,81.53697374553363,23200.0
114.49801959558056,101.69553887846571,81.4104648738795,23233.333333333336
114.4092745067578,101.74429081870436,81.49645279892289,23266.666666666664
114.65667489925907,101.90973612374886,81.68602625763681,23300.0
114.67700506954374,101.89606135447808,81.69304562589367,23333.33333333333
114.40412200300348,101.75819481124748,81.53857904821086,23366.66666666667
114.63387495125437,101.89236968672822,81.64224619784221,23400.0
114.6084732627228,101.97563936967191,81.75140790493413,23433.33333333333
114.65223974104626,101.75140962723192,81.55703769447635,23466.666666666664
114.39191887347626,101.6256042454813,81.16740226986128,23500.0
114.49240506329114,101.91782485145956,81.62115732368896,23533.333333333336
114.47607286199444,101.75051456210764,81.88131624987136,23566.66666666667
114.30966347638159,101.7989091283318,81.63478954409797,23600.0
114.54249547920428,101.98204598295014,81.82436063032809,23633.33333333333
114.35003087372644,101.85862406092414,81.68827827518781,23666.66666666667
114.59422851943329,101.87950084492395,81.73934745872872,23700.0
114.5727544520993,101.89390354868065,81.74647081762642,23733.333333333336
114.672052834917,102.01414848073507,81.59585465176988,23766.666666666664
114.70019520945448,101.82718687348316,81.35507016988498,23800.0
114.61778197163902,101.91494325181515,81.38423632408063,23833.33333333333
114.5822435980762,101.91345378915899,81.61331080202783,23866.66666666667
114.52965033147017,101.87604315611595,81.54132328090472,23900.0
114.52668659820615,101.84313011828935,81.56641102300793,23933.33333333333
114.69642532172104,101.8432601065904,81.72744053035227,23966.666666666664
114.50950214480696,101.84487196152348,81.42365787079163,24000.0
114.62529572338491,101.79402053815157,81.6732354088132,24033.333333333336
114.60645296021718,101.91466534405346,81.5063172183356,24066.66666666667
114.7996472297157,102.02998547416477,81.88021373728989,24100.0
114.85641952983723,102.12208731593904,82.02020149832084,24133.33333333333
114.78079908319008,102.02719174871073,81.70511017346459,24166.66666666667
114.72285162368172,101.91978176882114,81.69194424141172,24200.0
114.7042176800166,101.99587570035278,81.70463270388048,24233.333333333336
114.76341756291114,101.92795238592458,81.65093453064634,24266.666666666664
114.74082932536072,102.008397244248,81.73214610685038,24300.0
114.67072152030909,101.92816121958859,81.51563642059101,24333.33333333333
114.79723490350695,102.02347478730029,81.89017431002283,24366.66666666667
114.76857231790828,102.05512035692051,81.71368541191119,24400.0
114.96093587881303,102.01312512969496,81.9843847271218,24433.33333333333
114.69084441695021,102.0976647077018,81.72589957727602,24466.666666666664
114.78927163311891,101.96972919692881,81.78958290101681,24500.0
114.80377152936295,101.99572006640379,81.80024382652003,24533.333333333336
114.69799232205852,101.99961091512763,81.58751815729407,24566.66666666667
114.82817627754335,102.01979475959786,81.66554670000521,24600.0
114.80216331189042,102.11021477484957,81.7948225772982,24633.33333333333
114.82979111319477,102.03565661301243,81.81491899776006,24666.66666666667
114.7922852529041,102.01401260613638,81.7390738136167,24700.0
114.7790279731208,102.02323279679115,81.71904464239203,24733.333333333336
114.9074694005649,101.96223454336227,81.74291243853959,24766.666666666664
114.76024899723915,102.0472209199354,81.75673282283691,24800.0
114.88338930508912,102.16972358563679,82.01090157582021,24833.33333333333
114.84755654700146,102.2006121601992,81.88942207926956,24866.66666666667
114.96742443812971,102.18351847067942,82.21650736243866,24900.0
114.90869474994813,102.09877567960159,82.06204606764891,24933.33333333333
114.73459394697088,102.10170860030212,81.66669271240298,24966.666666666664
114.71542332434116,102.11727018053541,81.92192363560905,25000.0
114.6759701182818,102.11934529985474,81.8172598049388,25033.333333333336
114.74102510894377,102.09841253372069,81.82104689769663,25066.66666666667
114.51906484112631,101.9636011366572,81.64525962283649,25100.0
114.4963058641178,101.9626969775252,81.67840351330406,25133.33333333333
114.61503487470938,101.96228364763628,81.78623094807544,25166.66666666667
114.6295290800877,101.96927534718596,81.56593922940378,25200.0
114.77194438680223,102.02575741855158,81.83570242788961,25233.333333333336
114.70867918655323,102.0007003527703,81.71915853911602,25266.666666666664
114.82296638306705,101.97100020751192,81.88708757003529,25300.0
114.82776509649305,101.98023448848309,81.87025316455697,25333.33333333333
114.65416371785798,101.8309087573065,81.44166601137586,25366.66666666667
114.85286763556806,101.93801114757515,81.78678960254207,25400.0
114.68166126163824,101.99644314258812,81.37985144889633,25433.33333333333
114.72224527910356,102.04505602822162,81.78880473127205,25466.666666666664
114.60839904544511,102.10160302967421,81.62653040049804,25500.0
114.60995538493464,102.08642871965138,81.67944594314174,25533.333333333336
114.79145050840424,102.06544407553434,81.8318375181573,25566.66666666667
114.74514247017763,102.11600770953794,81.68997760066677,25600.0
114.75123717247486,101.93579725998852,81.71297598583112,25633.33333333333
114.7103193207272,101.92537896546335,81.54844506954211,25666.66666666667
114.93728809172556,102.15169397209928,81.93110231125604,25700.0
114.92016981820076,102.06112934312651,81.8322654581445,25733.333333333336
114.77730411130872,101.95373470028244,81.60673187571922,25766.666666666664
114.74699171745588,101.91550763140074,81.72769182684793,25800.0
114.7748456951564,101.9393765038184,81.52578721623603,25833.33333333333
114.97102207343865,101.92899361857937,81.75172612197929,25866.66666666667
114.6142886909413,101.97734020940771,81.50250039068604,25900.0
114.58672118686272,101.87913816151608,81.34940106419229,25933.33333333333
114.77707006369428,101.7554192550654,81.58221278603445,25966.666666666664
114.64836553139969,101.90030004737592,81.35784597568036,26000.0
114.72860475479021,101.84713375796179,81.52127073995439,26033.333333333336
114.66171266808209,101.8201357762575,81.47676338759142,26066.66666666667
114.6966075762372,101.81890366149626,81.42518729555765,26100.0
114.71742112482849,101.82251767436956,81.45615701171258,26133.33333333333
114.71250723798494,101.90711691319682,81.47836500500078,26166.66666666667
114.7623472903832,101.9937610942884,81.70927743552261,26200.0
114.52244897959184,101.95543787135107,81.72467062774477,26233.333333333336
114.59532042116207,101.85685688288055,81.59295463408294,26266.666666666664
114.71306254568235,101.91155894330166,81.60266785005744,26300.0
114.71624725905815,101.91187219379765,81.5611621593401,26333.33333333333
114.93457576472441,101.76131687242798,81.69725564205396,26366.66666666667
114.47595802443355,101.71374125509031,81.42474156834082,26400.0
114.83544336976748,101.75279809179314,81.68551283059422,26433.33333333333
114.65073432647259,101.71142812022951,81.3384481760278,26466.666666666664
114.79119813373177,101.81491966134571,81.57214751906896,26500.0
114.82679353096904,101.79919268171213,81.57841209928965,26533.333333333336
114.68016565751878,101.82645277974363,81.49639590050064,26566.66666666667
114.7454588346308,101.85861445309428,81.49859767764934,26600.0
114.70566957615792,101.8428874734607,81.47495478493357,26633.33333333333
114.90914354898142,101.88500815918304,81.55400852766226,26666.66666666667
114.79562789966188,101.81735734318892,81.60475479017589,26700.0
114.79326885271685,101.8131634819533,81.55851747005322,26733.333333333336
114.89100615799349,101.73520627956759,81.49419880011628,26766.666666666664
114.82070853292623,101.85268726641048,81.52300363215244,26800.0
114.8943409084952,101.7848811302456,81.76902309244844,26833.33333333333
114.67788524547194,101.78847212392859,81.49993447091819,26866.66666666667
114.63822178135116,101.68168528766836,81.57969614701891,26900.0
114.62073196199228,101.68163307925238,81.58494309282656,26933.33333333333
114.52260624412656,101.70674532734677,81.46436775608228,26966.666666666664
114.71615422924694,101.81444785195671,81.50913475400381,27000.0
114.61060989764694,101.74443389258205,81.26358552284478,27033.333333333336
114.65469030283846,101.78413527487602,81.29927719742534,27066.66666666667
114.45290800877102,101.7841704082698,81.359454944137,27100.0
114.4466168946434,101.78409209564579,81.3704448157043,27133.33333333333
114.60446904040931,101.81975044377155,81.41168946434166,27166.66666666667
114.72645540090693,101.88875783072528,81.4757935571807,27200.0
114.81392361930223,101.90807580404184,81.56208225210348,27233.333333333336
114.59709962168978,101.71348255569569,81.28044871794873,27266.666666666664
115.02825614007496,101.86532463107127,81.7811852900317,27300.0
114.91617938811736,101.7873812258536,81.75754411611152,27333.33333333333
114.79217771227036,101.9391746065168,81.37729641522346,27366.66666666667
114.82813075748804,101.94325419803127,81.5449544664947,27400.0
114.61565882938852,101.90545464076958,81.42090639825955,27433.33333333333
114.67830463159552,101.91213860711383,81.50866294461483,27466.666666666664
114.646981730492,101.8763859400802,81.4381274409583,27500.0
114.65023654095195,101.82017601818323,81.213811877263,27533.333333333336
114.71416539453598,101.78207085329262,81.40085276622624,27566.66666666667
114.62480215257992,101.79178537511869,81.22446449298302,27600.0
114.55719314838169,101.6899957965532,81.28567675493905,27633.33333333333
114.50407225644771,101.80675054818838,81.43387804114023,27666.66666666667
114.63254907058365,101.92887040166386,81.63946444819965,27700.0
114.53940759152815,101.7938480658692,81.62542074465331,27733.333333333336
114.36578707916289,101.67947484726378,81.35658390744833,27766.666666666664
114.54730274275316,101.69993500584948,81.54787469127778,27800.0
114.30601779173209,101.66389324960754,81.13076923076923,27833.33333333333
114.39201988487707,101.69322344322345,81.25371533228677,27866.66666666667
114.45489176124424,101.85235393022278,81.18182534678436,27900.0
114.4518968053804,101.85419293820934,81.16761244220261,27933.33333333333
114.55057271963007,101.82093316519544,81.38713745271124,27966.666666666664
114.46290458175704,101.78988020176544,81.23649642707021,28000.0
114.61083963850358,101.7780580075662,81.3731347204708,28033.333333333336
114.67521367521368,101.85404136330062,81.29239210720692,28066.66666666667
114.74477733218002,101.93808812350922,81.57146601661817,28100.0
114.77824958716678,101.93035569185604,81.55414012738855,28133.33333333333
114.5563067766524,101.8466116738018,81.44405868225958,28166.66666666667
114.79381929700399,101.91583444732773,81.57982752745669,28200.0
114.58786676412235,101.86759945703248,81.37381225853608,28233.333333333336
114.78756395530961,101.84749921687376,81.65618147645402,28266.666666666664
114.5279837109742,101.84428839928995,81.37430823848804,28300.0
114.56095151436372,101.95416612504872,81.56232939035488,28333.33333333333
114.67999480046795,101.88631223189913,81.69021188093072,28366.66666666667
114.63787135107208,102.04810126582278,81.74466546112116,28400.0
114.67833095021449,101.93973742363188,81.75484206421422,28433.33333333333
114.62326790588848,101.94254517093462,81.57389834914858,28466.666666666664
114.7368776810087,101.99493045625894,81.5643572078513,28500.0
114.74483296503315,101.99469647731705,81.58307552320291,28533.333333333336
114.62972887767971,101.81447036569988,81.22900903741069,28566.66666666667
114.88253139179064,101.87480215257992,81.33905771868736,28600.0
114.68219314838169,101.7566729718369,81.31898907103825,28633.33333333333
114.78444846292948,102.10774993541719,81.8518987341772,28666.66666666667
114.80421844001249,102.08927639135428,81.62603111621594,28700.0
114.75507850384001,101.9910880448743,81.47526932452621,28733.333333333336
114.9091766926162,101.97061675971796,81.76105475610076,28766.666666666664
114.6702838719824,101.92836360776913,81.47566249901706,28800.0
114.64560927221468,101.81593922940378,81.61927012634436,28833.33333333333
114.5135317821396,101.98965293123621,81.58575328220459,28866.66666666667
114.69772668561096,102.07778351847068,81.93089640919659,28900.0
114.72265564453629,102.07083440971329,81.97706019116508,28933.33333333333
114.44875977422194,101.83770907772772,81.59401377453266,28966.666666666664
114.5043757443944,101.85578167883592,81.65045828802238,29000.0
114.5752062232432,101.92270544011694,81.47598412864154,29033.333333333336
114.5489876236342,101.88835378799648,81.63041789653565,29066.66666666667
114.44157509157507,101.73330716902146,81.21023024594453,29100.0
114.43148316651501,101.8373846353828,81.40205381515662,29133.33333333333
114.62582228255195,102.01981309387074,81.41738018168529,29166.66666666667
114.57225644773938,102.02440743447843,81.38681215411924,29200.0
114.82909575023493,102.01002401587135,81.70186384045108,29233.333333333336
114.44577340004169,101.8865957890348,81.39105169897853,29266.666666666664
114.52564102564102,101.78071690214549,81.31046572475144,29300.0
114.6739964270702,101.91661412358135,81.39352143757881,29333.33333333333
114.59084264383421,101.9891928578887,81.44888796073927,29366.66666666667
114.6687637047092,101.98065678187322,81.55045943406077,29400.0
114.64733347167463,102.08225254202117,81.65511516912224,29433.33333333333
114.71747415683409,102.00835334655943,81.62569176151196,29466.666666666664
114.82311788660331,102.24783335073614,81.74812049702413,29500.0
114.82048136159548,102.2548814868957,81.70439594862692,29533.333333333336
114.9201751609159,102.05880025324473,81.49295663184553,29566.66666666667
114.90029667302395,102.05671222716678,81.36029879211698,29600.0
114.89557399723377,101.98489200978828,81.36676774124906,29633.33333333333
114.87940206404936,101.98699329715929,81.28018938184914,29666.66666666667
114.98280046428196,102.10119236045162,81.71011396011396,29700.0
114.99817980373535,102.10295979740424,81.77730294396962,29733.333333333336
114.72640297764148,102.23627165736154,81.50643495583341,29766.666666666664
114.84958320143505,102.1301044634378,81.50532869051388,29800.0
114.8954046639232,102.29152157855862,81.53806584362141,29833.33333333333
115.00636942675159,102.38677885245473,81.88047495478494,29866.66666666667
114.85619304937487,102.20340644204279,81.44405594405596,29900.0
114.83423394787032,102.1911951684679,81.43417567281205,29933.33333333333
114.99498786535824,102.28687875910101,81.63255777144666,29966.666666666664
114.7918505674653,102.24277532576711,81.5047288776797,30000.0
114.84673182009249,102.20830706179066,81.6839007986549,30033.333333333336
114.90286624203821,102.25595175942362,81.80293933382063,30066.66666666667
114.99780724652815,102.25550798788765,81.93246841390831,30100.0
115.0030280881278,102.26772475723088,81.91735407747728,30133.33333333333
114.93063913675036,102.35640174310024,81.9825171197344,30166.66666666667
114.9359210042544,102.23252271652923,81.580518934818,30200.0
114.83310522714113,102.22443017318524,81.53363689003527,30233.333333333336
115.012082853855,102.37807302019041,81.82016947379435,30266.666666666664
114.86842796365356,102.25673617311834,81.54958243605232,30300.0
114.89316351082748,102.35649649544932,81.7005178365938,30333.33333333333
114.91333578444248,102.22044225011818,81.67193655128945,30366.66666666667
114.92807825086308,102.41628308400459,81.75787216236006,30400.0
115.05303902081808,102.41016319698713,81.88076681661262,30433.33333333333
114.93131355052915,102.44521684996887,81.9584716746213,30466.666666666664
115.11147575141949,102.47770484971608,82.04552794707506,30500.0
115.05666954994626,102.37330607323533,81.88123509213389,30533.333333333336
114.97093129931065,102.34177347907,81.7658776965217,30566.66666666667
114.96513852847895,102.37401378731882,81.79848496762864,30600.0
114.9250671158604,102.263910091067,81.62065062904671,30633.33333333333
115.04912844988588,102.4457875077817,82.1139499896244,30666.66666666667
114.8065470014526,102.40057584561113,81.83588400083005,30700.0
114.76867607387426,102.42410251089441,81.82937331396556,30733.333333333336
114.91681365428516,102.37551877982985,82.06181261672545,30766.666666666664
114.82434114961613,102.40794251919485,81.9198225772982,30800.0
114.98028036405479,102.34344596715135,81.94505178365937,30833.33333333333
114.82710840235454,102.32872323800596,81.8222118039277,30866.66666666667
114.94407980413608,102.34260561546076,81.85609730687086,30900.0
115.0531697876347,102.3599748927712,81.87231928025946,30933.33333333333
114.85674845027869,102.29934364744491,81.8081471063187,30966.666666666664
114.9915263102835,102.37148237263314,81.83981064964955,31000.0
114.78142119472622,102.24769992922859,81.61442688265052,31033.333333333336
114.92617763021374,102.47608424984438,82.0568582693505,31066.66666666667
114.76750281775051,102.31412020654768,81.61833241592619,31100.0
114.75410867342929,102.31383187858772,81.59728447484994,31133.33333333333
115.1468113548793,102.4244711803098,81.97858509606564,31166.66666666667
114.91748806806393,102.4974320398423,81.8828076364391,31200.0
115.01258041087364,102.49118074289272,82.05371965137996,31233.333333333336
114.90348101265823,102.430198173895,81.91359721934012,31266.666666666664
114.93077164038843,102.32455361804323,81.83168006682678,31300.0
115.03600332019093,102.41377879228055,81.98775679601577,31333.33333333333
115.01523675574309,102.45280512580092,81.88602385789444,31366.66666666667
114.96186239932621,102.26285729325683,81.75801442333,31400.0
114.88524503869031,102.26114649681529,81.60198978786123,31433.33333333333
114.94147436566774,102.30949149002821,81.85556541714523,31466.666666666664
114.76621186968252,102.23448848308779,81.82864702220378,31500.0
114.79855334538877,102.31420821493154,82.03389305089124,31533.333333333336
114.9160015598596,102.23863252307292,81.89203171714546,31566.66666666667
114.90216998191678,102.36218031516405,82.03045724618961,31600.0
115.22055445337787,102.43588806515608,82.04656990706901,31633.33333333333
114.85402102428672,102.4653565325462,81.83095127129616,31666.66666666667
115.1634203048308,102.61425988116764,82.17584603461637,31700.0
115.16835443037978,102.60984241797985,82.19938000516663,31733.333333333336
114.82051540672752,102.72328407887436,82.39482576025014,31766.666666666664
115.08392405063292,102.77632911392406,82.61521518987342,31800.0
114.83000355853794,102.55553861013674,82.3568451019267,31833.33333333333
115.11255489537588,102.50480495995865,82.2346422113149,31866.66666666667
114.84413913759391,102.36984151487083,82.1316764433467,31900.0
114.833513430071,102.36351240094679,82.14899145826901,31933.33333333333
115.04110049082924,102.46812193231723,82.21583570136916,31966.666666666664
114.96218031516405,102.47173856884524,82.08183931800569,32000.0
115.04923220585184,102.37261361278273,81.93787611537664,32033.33333333333
114.91660614235322,102.35417098983193,81.78789686656984,32066.66666666667
115.07107283668812,102.353911599917,82.1876686034447,32100.0
115.12909836065576,102.33002178875286,82.28538078439509,32133.33333333333
114.91539386965164,102.28925619834708,81.76158593995187,32166.666666666664
115.05701411678908,102.3915455539928,82.08217429806741,32200.000000000004
114.81292799335962,102.41128864909732,81.94840734592239,32233.333333333336
115.08860759493672,102.35824341149616,82.08295289479145,32266.666666666664
115.01018388289837,102.41292910350576,81.89941136635933,32300.0
114.941888810254,102.31003119184294,81.69930014940631,32333.333333333336
115.06212388462338,102.34926852043994,82.01652313758042,32366.66666666667
114.91239989666752,102.21996900025832,81.9660811159907,32400.0
115.08487238016188,102.30260427474579,82.04796119526874,32433.33333333333
114.87473521053991,102.15724618961508,81.9817101524154,32466.66666666667
115.08139655530194,102.23495538493464,82.13965553019301,32500.0
115.09496264785228,102.2415698277651,82.09366569827766,32533.33333333333
114.88404510807142,102.11008144512896,81.81100553409209,32566.66666666667
114.88208729247157,101.85196303644148,81.8640753889527,32600.0
114.7904093139814,102.05980474052416,81.73713062545683,32633.33333333333
114.82857592199422,102.01939660821472,81.67206626300752,32666.666666666664
114.82398888626771,101.99735262509502,81.5567612906608,32700.000000000004
114.79214175250976,102.0303792823255,81.52965846242563,32733.333333333336
114.96167902265846,102.12383836274408,81.87449096794403,32766.666666666664
114.84666388221778,102.12073196199228,81.82053357001148,32800.0
114.97476136127828,102.22919692882341,82.12230234488483,32833.333333333336
114.899408590994,102.2561994189666,81.93790205436814,32866.666666666664
114.97775694118872,102.11045996770329,81.90897015158619,32900.0
114.9847371985206,102.10431317393343,81.91251237172474,32933.33333333333
114.81381877277136,101.9946528269246,81.6036014783361,32966.66666666667
114.98676106753695,102.07237984944992,81.66607885455599,33000.0
114.9110385850397,102.05271885034479,81.67750171079645,33033.33333333333
114.97939765668005,101.9226756834683,81.946423422715,33066.66666666667
114.78298692504038,102.0132833255196,81.79436891180913,33100.0
114.73527113611502,102.01020992863468,81.77254258477888,33133.333333333336
114.9076157732979,101.91261655467,82.06375996249416,33166.666666666664
114.79715580559464,101.97588164817421,81.84916914101161,33200.0
114.84220597100992,101.84742208592172,81.75400382689837,33233.333333333336
114.78456659065293,101.86519357290766,81.63633980760662,33266.666666666664
114.85280151946822,101.79927719742537,81.55829903978051,33300.0
114.73604270352509,101.90159622476082,81.93501637484205,33333.333333333336
114.69648521106785,101.94579540472937,81.82946955826606,33366.666666666664
114.71677970035329,101.90853296887494,81.94326826375101,33400.0
114.57014137020352,101.8056807001191,81.73766247216612,33433.33333333333
114.8674899259067,101.91836734693878,81.83319901208891,33466.66666666667
114.77532822046015,101.94813466787993,81.78476537111659,33500.0
114.88957920016706,102.046648219693,81.79777070063695,33533.33333333333
115.0757516185683,101.91410447956804,81.8052737805038,33566.66666666667
114.56276271542663,101.76602564102564,81.31680853299706,33600.0
114.69480348886087,101.71164354770912,81.47935056746532,33633.333333333336
114.67882490575847,101.89483946444821,81.62927336539711,33666.666666666664
114.78138567528923,101.91412972832443,81.80764331210192,33700.0
114.7991940725335,101.91145196932275,81.82337189652931,33733.333333333336
114.6438060574548,101.91480566748993,81.62295593396594,33766.666666666664
114.7467108697922,101.78025477707008,81.5500939751488,33800.0
114.86770387386449,101.98107444920122,81.64195468309491,33833.333333333336
114.85809022043983,101.91402584466988,81.58019449031481,33866.666666666664
114.79683363476713,101.860816230243,81.5605881890383,33900.0
114.81304166231595,101.96836169990604,81.72306045734571,33933.33333333333
114.92612575223076,102.10790620460678,82.03491388254825,33966.66666666667
114.722526478946,102.03422888142599,81.83890467579437,34000.0
114.99263453120493,101.92734135409296,81.81397604256769,34033.33333333333
114.87341772151899,102.02299838516434,81.71003281762775,34066.66666666667
114.85153539433485,102.02262958935322,81.96965460100459,34100.0
114.9391530307708,102.13669342389628,82.13684779252856,34133.333333333336
114.82037974683546,102.25017721518988,82.28440506329116,34166.666666666664
115.10665067374441,102.30221518987342,82.37648019599837,34200.0
114.94530930992242,102.29688138015516,82.24793282972642,34233.333333333336
115.15015189873421,102.49407594936709,82.67716455696203,34266.666666666664
114.93918987341772,102.41749367088607,82.49653164556963,34300.0
114.95577215189873,102.4074683544304,82.4793924050633,34333.333333333336
114.96133902699404,102.24213308931931,82.4251944486808,34366.666666666664
114.99741198175577,102.1652744324297,82.29754522625942,34400.0
115.01481938870022,102.05112174539468,82.21863743953895,34433.33333333333
114.9045487290316,102.05395183698671,82.10013378614799,34466.66666666667
115.28529832315093,102.03889249967504,82.24650981411673,34500.0
115.34696460862827,102.12539395505036,82.42645311289073,34533.33333333333
114.9403518847238,101.97097212070585,81.75402004803175,34566.66666666667
115.06400623943846,102.097283244508,81.9697647211751,34600.0
115.01505443558891,102.09717664218368,81.84685107047976,34633.333333333336
115.11280408397144,102.14512684273585,81.98098661249153,34666.666666666664
115.02795794539179,102.08858144157335,81.8020190396485,34700.0
114.99524008787529,102.09153677162884,81.7812271158071,34733.333333333336
115.14392195836383,102.11680092059841,82.00970289779265,34766.666666666664
115.03203787007007,102.14012972068208,81.86549325243227,34800.0
115.13965896014228,102.14496809289676,81.96152840255256,34833.333333333336
115.04746835443035,102.15359870279318,81.91154932524323,34866.666666666664
115.14162046239146,102.14219583638456,81.93754576838582,34900.0
115.16264776650276,102.12728841929072,81.94277644105031,34933.33333333333
115.14162046239146,102.09001987655613,81.852416570771,34966.66666666667
115.28470551312898,102.08787530076368,82.06138194371796,35000.0
114.97423709228428,101.97045538105994,81.6080151268449,35033.33333333333
115.11755936813476,102.00308609687204,81.91309237367925,35066.66666666667
114.94716109039341,102.03387782971797,81.5493986028678,35100.0
114.9449550921792,102.03125164136772,81.54317453647776,35133.333333333336
115.06520072944471,101.90038850860269,81.56405106113064,35166.666666666664
114.88566878980892,101.72643312101914,81.20459129511677,35200.0
115.1417395670904,101.87662869677828,81.58033142162435,35233.333333333336
115.07164241819423,101.99947476232995,81.61408162193393,35266.666666666664
115.20640234334135,102.15854168846113,81.854038079297,35300.0
115.04918248945148,101.89185126582278,81.52114978902955,35333.333333333336
115.06523451861969,102.00630285204056,81.60323546404749,35366.666666666664
115.07566667547638,101.97248724793192,81.57179480402779,35400.0
114.86511075949369,101.81803797468358,81.39741561181435,35433.33333333333
115.07842356687898,101.72327494692145,81.44554140127389,35466.66666666667
114.77352557098314,101.5827092716467,81.03496522133092,35500.0
114.89498407643312,101.78479299363056,81.27157643312103,35533.33333333333
115.013508492569,101.78819002123144,81.39657643312103,35566.66666666667
114.92203398789543,101.93527499537493,81.35169278748316,35600.0
115.02114332531649,101.90197425800142,81.55842165076513,35633.333333333336
115.00168447649628,102.07988103384744,81.56237827025319,35666.666666666664
115.16400774139557,102.1787059315828,81.93380583743071,35700.0
115.18550580604666,102.16468772884191,81.96100533528612,35733.333333333336
115.48796176698528,102.67545853784551,82.32136398863342,35766.666666666664
115.73535729999745,102.74793591634962,82.25980277971892,35800.0
115.70096890139084,102.65499817679846,82.13416158774808,35833.333333333336
115.5777215319323,102.71969115917574,82.41818786112391,35866.666666666664
115.51486304212492,102.70232413363769,82.05628761153767,35900.0
115.53055613197759,102.70053434322477,82.04754617140486,35933.33333333333
115.52488260514495,102.76510820743161,82.5634953042058,35966.66666666667
115.37802305238243,102.85831532365955,82.24994854378923,36000.0
115.4363988633428,102.64980625161456,82.41989150090416,36033.33333333333
115.20538493463377,102.47382755758457,82.06214982361486,36066.66666666667
115.2906204606765,102.45094936708858,82.18847271218095,36100.0
115.30898526665285,102.4487186138203,82.19996368541192,36133.333333333336
115.16346752438265,102.44397177837726,82.07672753683337,36166.66666666666
115.18945496390836,102.26239669421487,81.9916570771001,36200.0
115.11418558426615,102.26420127628413,81.96780520974997,36233.333333333336
115.22816194162571,102.26642431216656,81.93545349931998,36266.66666666666
115.1779965619628,102.34547064645515,82.02354534562691,36300.0
115.16502578527896,102.35583684950774,82.01807574100121,36333.333333333336
115.32952894791453,102.46231064536212,82.33871135090268,36366.66666666666
115.2315054990662,102.46378916787715,82.23508507989209,36400.0
115.48757522307535,102.49312616725464,82.54243619008093,36433.33333333333
115.12290634583627,102.33965033681947,81.8584047600325,36466.66666666667
115.2227193767437,102.27456966889507,81.84979207243248,36500.0
115.2871222248434,102.33781552252891,81.99735262509502,36533.33333333333
115.13713926240463,102.38444601714241,81.83248145526986,36566.66666666667
115.32917406285894,102.4876788138248,82.10206745327345,36600.0
115.13792561138634,102.37915126733245,81.83628214201462,36633.333333333336
115.25519645618726,102.3400172996776,81.9899085214018,36666.66666666666
115.15168184450177,102.29151971363899,81.734852871506,36700.0
115.08880196632923,102.19766366255251,81.5450220683458,36733.333333333336
115.18608769194174,102.20831461268072,81.6347754843143,36766.66666666666
115.15449866064395,102.29977940017858,81.71524239718471,36800.0
115.26922672000843,102.31902405642995,81.76635784597569,36833.333333333336
115.16314718397335,102.19245711869335,81.4919523218014,36866.66666666666
115.39819445175554,102.24009054061169,81.9452018739801,36900.0
115.39758909301467,102.24285413486342,81.93175238195505,36933.33333333333
115.08866982054602,102.18222903507149,81.53016888231096,36966.66666666667
115.1571563931147,102.28201821340213,81.80302152971521,37000.0
115.06448386587357,102.29957361688689,81.58767173764278,37033.33333333333
115.15439913312366,102.20435023918388,81.70380844147263,37066.66666666667
115.13526442371223,102.20413880593071,81.56624468113222,37100.0
115.08906625789572,102.24325395776621,81.53006316568438,37133.333333333336
115.21529191003515,102.24214393318708,81.6569759758966,37166.66666666666
115.1544255622803,102.23823241800352,81.56785685968761,37200.0
115.22607500594656,102.24153606258423,81.76129185717683,37233.333333333336
115.18137357464173,102.41837535307043,81.91711999163094,37266.66666666666
115.24306935871954,102.384689821111,81.98082958468459,37300.0
115.26035673187573,102.37603305785125,82.00983366460927,37333.333333333336
115.1510618265509,102.35942567214144,81.87924992153991,37366.66666666666
115.20073448976405,102.29405636297336,82.18534145960307,37400.0
114.96938481298001,102.16046761552778,81.82246861156982,37433.33333333333
115.15512975733007,102.15834079065115,82.01476548928778,37466.66666666667
114.9760639683284,102.2695733708392,81.99572849924469,37500.0
114.97478772724905,102.26665624837212,82.02156586966713,37533.33333333333
115.10060024638935,102.18468716416344,81.9590574296873,37566.66666666667
115.03589213816488,102.09353146853148,81.63204598431871,37600.0
115.09174071452914,102.1280176142172,81.98335561322116,37633.333333333336
115.0585399449036,102.08529349438442,81.64385992795084,37666.66666666666
115.06568534346312,102.07747704969928,81.7905982905983,37700.0
115.06346945235836,102.09847525588266,81.7903344940382,37733.333333333336
114.99719535529869,102.22908966999556,81.83746166548714,37766.66666666666
115.11464598501637,102.11235095494357,81.80690091801203,37800.0
115.06362378976488,102.03263645068623,81.43360995850622,37833.333333333336
115.24227607897028,102.09858075428812,81.82577899939213,37866.66666666666
115.0146888185654,102.13090717299578,81.55179324894516,37900.0
115.0080361363517,102.19454803298493,81.65996113241242,37933.33333333333
115.01300314506963,102.06083991859819,81.62425667996933,37966.66666666667
114.91028300883072,101.99268539206301,81.44132354505798,38000.0
115.07724225981487,101.9402596020853,81.57197574210022,38033.33333333333
114.97741901445606,101.97992508177694,81.6056769019732,38066.66666666667
115.17231859144657,102.21336667187582,82.1076730739178,38100.0
115.18651351773714,102.21237693389592,82.11116320258374,38133.333333333336
115.05335700114858,102.23916675368069,81.97141589224184,38166.66666666666
115.06769019731985,102.025535507017,81.7661971087897,38200.0
114.99419647567795,102.03880447398966,81.65007386303681,38233.333333333336
115.09153740635223,102.03387147831593,81.6513928458373,38266.66666666666
114.8704187114963,102.02968048449414,81.77085726219066,38300.0
114.87934635063172,102.03683303748564,81.7232953952177,38333.333333333336
115.23745118083409,102.1346229456633,82.06054887158922,38366.66666666666
114.91805734952207,102.2909067424438,82.04042882975975,38400.0
115.0700077499354,102.21482820976492,82.22761560320329,38433.33333333333
114.84301412872841,102.03406593406594,81.75204081632653,38466.66666666667
114.97956583907448,102.15125438710515,81.98585727284545,38500.0
114.97946184843364,102.14792668659821,81.99916807487327,38533.33333333333
114.92491875731184,102.11366177044066,81.89127778499935,38566.66666666667
115.05116339529442,102.10373066424023,82.01557259846614,38600.0
115.1013030685162,102.0449506094998,81.79828709541825,38633.333333333336
115.11105835179909,101.95581407618444,81.75662129365833,38666.66666666666
115.13660332045528,102.14803696355852,81.92074762451708,38700.0
115.0551334810594,101.95212092434315,81.59195948084837,38733.333333333336
115.16714150047484,101.9238419331012,81.67764060356653,38766.66666666666
115.04252400548694,101.93077978263165,81.62343041046745,38800.0
115.32719014305107,102.13843061501514,82.2155946538582,38833.333333333336
115.12165387009752,102.3171819879643,82.08458705125545,38866.66666666666
115.18273187717631,101.96728922654849,81.80041152263375,38900.0
115.17692835285429,101.95082832119871,81.80959164292499,38933.33333333333
115.03944345828549,102.2315704291532,81.93580975253211,38966.66666666667
115.17911937788988,102.12697036569988,81.96629361076083,39000.0
115.06784483658764,102.17891824162056,82.00563850892766,39033.33333333333
115.18834186070795,102.18168528766836,82.125039156312,39066.66666666667
115.12433434269606,102.13125195781559,81.99483136681633,39100.0
115.07256969823536,102.14098882739893,81.98592983188891,39133.333333333336
115.20700636942676,102.10355539312937,82.02777487731022,39166.66666666666
115.16043646235774,102.13388848282342,82.01660227628693,39200.0
115.23786154328077,102.14660123211858,82.05066826772476,39233.333333333336
115.08047927325885,102.12175002610421,82.00903205596742,39266.66666666666
115.16690497855193,102.04479396854285,82.26624203821656,39300.0
115.17839594436501,102.04055634992851,82.28823605875472,39333.333333333336
114.82223034353136,101.94100448992376,81.70737182833872,39366.66666666666
115.00873521383076,102.00930716235537,82.10752632263095,39400.0
115.05255239676279,102.26898734177216,82.03053019298609,39433.33333333333
115.03598553345388,102.2185481787652,82.24037716352363,39466.66666666667
115.1220948329529,102.2952116621706,82.22188213322265,39500.0
115.12422183025524,102.30021788752852,82.18043162481844,39533.33333333333
115.23809400290516,102.31147540983608,82.37455903714464,39566.66666666667
115.1754344578124,102.28599512463629,82.04251526827606,39600.0
115.28248276585148,102.30654504469084,82.11506906765223,39633.333333333336
115.27423555763922,102.3798510183883,82.16645830077616,39666.66666666666
115.23825310640076,102.23305836900907,82.15268351258223,39700.0
115.29663830670263,102.35121394480184,82.31588503838971,39733.333333333336
115.33473980309424,102.36021253320831,82.1637234984633,39766.66666666666
115.42394745172524,102.13838767542471,81.99831170201541,39800.0
115.22465990406543,102.25157925087154,81.89740766952373,39833.333333333336
115.30470533305666,102.24162170574809,82.34081240921354,39866.66666666666
115.18893577121423,102.33492212324842,82.03995415950409,39900.0
115.11310993224434,102.13243867850204,81.74657282420296,39933.33333333333
115.26889618169506,102.30765223732875,82.19828619055059,39966.66666666667
115.18742511850807,102.33731833098923,82.06068656560922,40000.0
115.27597028977928,102.2994821634062,82.05254210691496,40033.33333333333
115.21647138822053,102.28248247724657,82.04137462077624,40066.66666666667
115.23769542559351,102.19260935937253,81.98815602463547,40100.0
115.2242265310447,102.12452320406868,81.82827399872855,40133.333333333336
115.24774964468071,102.26290993314734,81.85181870821708,40166.66666666666
115.61702846743792,102.6948654621084,82.4154686078253,40200.0
115.4174184323411,102.5415052645262,82.26008059274666,40233.333333333336
115.73321201091902,102.653581177694,82.5560379565839,40266.66666666666
115.46444121915822,102.9163038219642,82.6009217528582,40300.0
115.5206319987728,102.94776806258629,82.59699851715499,40333.333333333336
115.49472573839662,102.76839559534835,82.69386127405578,40366.66666666666
115.23859467837768,102.56843192973392,82.28607594936709,40400.0
115.1511291256514,102.0880665368216,81.81652366163078,40433.33333333333
115.20680978218134,102.24500013105816,81.9049041964824,40466.66666666667
115.29168620096891,102.36807834557483,82.20677710058864,40500.0
115.11964479213468,101.99024764119775,81.68335227422892,40533.33333333333
115.13636363636364,102.21150224918924,81.84585207657705,40566.66666666667
115.15535058276285,101.98768401300312,81.6308375399741,40600.0
115.09396501917118,102.08377540837229,81.72703398287726,40633.333333333336
115.17212038447398,102.09099742633543,81.78323441357216,40666.66666666666
115.03287583785507,101.91549632939676,81.38892435365464,40700.0
115.19505178365938,102.30358824144787,81.93989957108484,40733.333333333336
115.42972574617045,102.26664736537347,82.05645628257093,40766.66666666666
115.20404216995126,102.16560712015259,81.69866497139225,40800.0
115.1875677247139,102.11631471839728,81.75772392102971,40833.333333333336
115.14262778333419,102.32494604411222,81.78888771911355,40866.66666666666
115.24159077749118,102.30989103542663,81.89987892825181,40900.0
115.2487498026004,102.29444122756223,81.94599147233774,40933.33333333333
115.0732258750931,102.0600861793808,81.49702095967656,40966.66666666667
115.09450473454625,101.9803968507288,81.60301627832749,41000.0
115.04285030322374,101.94935631450157,81.49880306415577,41033.33333333333
115.11687413554634,101.95927758272155,81.59314820725609,41066.66666666667
115.13660203432931,102.12163593981778,81.67358020767112,41100.0
115.13260224623863,102.12219220173763,81.68965882602247,41133.333333333336
115.26493960584871,102.13241682559864,81.77839584657767,41166.66666666666
115.2540049372341,102.20528914333737,81.8381217500919,41200.0
115.3612884349399,102.00170230875624,81.78979146717737,41233.333333333336
115.11438756520144,102.34987287358128,81.93808812350922,41266.66666666666
115.20159333122295,102.24976258309592,81.94301994301995,41300.0
115.17405297034928,102.28162920755514,81.9130526537934,41333.333333333336
115.02437480215258,102.34058773873586,81.77664345256939,41366.66666666666
115.16305265379341,102.30033238366572,81.98105940698534,41400.0
115.08383454679752,102.32375751820196,81.87730821990081,41433.33333333333
115.2523655998532,102.42232182642657,82.15787266388824,41466.66666666667
115.17602067453274,102.390727785319,82.08327242351467,41500.0
115.1547457450141,102.39785423410255,82.05544533778846,41533.33333333333
115.23384149524904,102.37976401795973,82.18009293098048,41566.66666666667
115.2091991228986,102.34919599039364,82.09089485225019,41600.0
115.296883157565,102.33032264801086,82.17552469458076,41633.333333333336
115.062389057116,102.27422470502243,82.00663046883156,41666.66666666666
115.22556746532156,102.11044556536359,82.06378730559058,41700.0
115.24689995796551,102.11152269861286,82.0247477931904,41733.333333333336
115.19606301276508,102.36206128279731,81.94495557128253,41766.66666666666
115.2217737680701,102.24477682811016,81.96707818930041,41800.0
115.11992959226566,102.19813997477932,81.8293137873056,41833.333333333336
115.29738723514885,102.43548680618744,82.36934875861172,41866.66666666666
115.31460791479587,102.49605826459222,82.24749399603215,41900.0
115.37095351732724,102.5847426852044,82.41717680016602,41933.33333333333
115.50851695577434,102.5287805386258,82.44465281033494,41966.66666666667
115.35774069589935,102.35355582460389,82.03695320313733,42000.0
115.49374902328488,102.5550606865656,82.45496692191489,42033.33333333333
115.35201012978793,102.29120502268653,81.95444233407197,42066.66666666667
115.49327671620665,102.41742025110744,82.126523551152,42100.0
115.50520300909544,102.41110324762128,82.12371890645069,42133.333333333336
115.35789363319442,102.38365966816072,82.02207019475243,42166.66666666666
115.29401588424943,102.3728342638463,81.99782443448403,42200.0
115.16144349477685,102.23965917484436,81.74052970349267,42233.333333333336
115.25778766687858,102.1237285441831,81.76798580207672,42266.66666666666
115.19647839132494,102.25003947991787,81.75469811022793,42300.0
115.24431862860737,102.36869282587612,81.89316138502271,42333.333333333336
115.23103411739777,102.13840326340328,81.76380059334605,42366.66666666666
115.10072880093628,102.11964038727524,81.42275774018513,42400.0
115.21582962492054,102.16820300911208,81.75079465988556,42433.33333333333
115.15530303030305,102.17768595041322,81.67310341173977,42466.66666666667
115.22788196651834,102.2198559016741,81.81630112311932,42500.0
115.2494437380801,102.2350603941513,81.7828724305997,42533.33333333333
115.26753549480823,102.21673023945752,81.74441089213816,42566.66666666667
115.34294871794873,102.22433248569612,81.92156706929435,42600.0
115.38276847264817,102.38528478938952,82.11446620009961,42633.333333333336
115.49193379972851,102.28268246841392,82.3872820298632,42666.66666666666
115.25422888169571,102.28712018377364,81.99250809230449,42700.0
115.2448574710243,102.2533674428318,82.0049597995197,42733.333333333336
115.3042384312098,102.35741336376844,82.33450923428097,42766.66666666666
115.21223282838764,102.34392508819258,82.2395725254202,42800.0
115.32948731335493,102.32580662002717,82.14187637047092,42833.333333333336
115.26772561662868,102.3189169353359,82.0217818667925,42866.66666666666
115.28967500263796,102.23863036826,81.95180436847104,42900.0
115.30705919594809,102.23311702015404,81.95829376384933,42933.33333333333
115.22359396433471,102.22303999155851,81.8928722169463,42966.66666666667
115.36266415034993,102.32625619249822,82.18801604151923,43000.0
115.32730465780712,102.29579827527458,82.05640743361906,43033.33333333333
115.3932942776441,102.31496495449316,82.14661575478607,43066.66666666667
115.37080238518674,102.37888377445341,82.04639606653416,43100.0
115.3737838686055,102.37381002196881,82.03703316246471,43133.333333333336
115.64695551885927,102.39207360226469,82.27440958297292,43166.66666666666
115.28069854860605,102.36953116842434,81.99428317844837,43200.0
115.29492633326416,102.48892405063292,82.31713010998129,43233.333333333336
115.1351996015832,102.28961232995205,81.93544074860424,43266.66666666666
115.39044848103588,102.40355429739719,82.10668134518099,43300.0
115.38585039743117,102.26633152603044,82.02568826656841,43333.333333333336
115.14725047679592,102.12425831744015,81.71564420428058,43366.66666666666
115.22102140283958,102.10998092816277,81.76750900614537,43400.0
115.34916988618565,102.43038007726842,82.28701576694164,43433.33333333333
115.4717535421812,102.38720915117642,82.15455608995191,43466.66666666667
115.28854021024289,102.29868986587955,81.99500284811765,43500.0
115.46567008969193,102.4167164955154,82.04206421422072,43533.33333333333
115.59725027186579,102.50393558075709,82.2902231888561,43566.66666666667
115.4946491657856,102.556976714201,82.3050104437969,43600.0
115.50441255467732,102.54910086204693,82.68858874990408,43633.333333333336
115.222723639083,102.51017303179556,82.17991696536784,43666.66666666666
115.42547145440454,102.47594936708859,82.54668044432962,43700.0
115.25873854279943,102.297343482989,82.33392884884262,43733.333333333336
115.09455078728004,102.45078213440362,82.3072193063703,43766.66666666666
115.18284915333228,102.41046553777642,82.25762518771684,43800.0
115.22875117468935,102.37587449096796,82.03675472486167,43833.333333333336
115.33498466619486,102.24733296637051,82.04516264318104,43866.66666666666
115.31896641908148,102.33960142274296,82.09028141018935,43900.0
115.21521591915405,102.30437047455332,82.11572120643851,43933.33333333333
115.35481918197607,102.25751434437015,82.02555666684214,43966.66666666667
115.29489652985173,102.14419747865843,81.78145730369744,44000.0
115.40932628936079,102.33729992677056,82.15992781671723,44033.33333333333
115.28203787007007,102.3147818809499,82.0192750287687,44066.66666666667
115.56700491683227,102.27526414896955,82.31614185584266,44100.0
115.57840778324093,102.26365205565435,82.35432576629354,44133.33333333334
115.30405900198765,102.27270111936394,82.09828433936605,44166.66666666666
115.44902849403552,102.36206178048651,82.36172318591447,44200.0
115.20314015360016,102.15934051532072,81.95578097559698,44233.33333333334
115.39611884088293,102.27134114447121,82.1665184642745,44266.66666666666
115.31112807285358,102.22124545980944,81.84497552245091,44300.0
115.30617992314579,102.22782544612306,81.84868663473179,44333.33333333334
115.35469191338007,102.33698608641072,82.19280259441365,44366.66666666666
115.24302016985138,102.069559447983,81.61958598726115,44400.0
115.32638004246284,102.08412951167729,81.77651273885351,44433.33333333333
115.30097523588022,102.17689034542907,81.78301662393953,44466.66666666667
115.40432795840118,102.26335416776092,82.01187037134305,44500.0
115.40600871894532,102.27351751667628,82.0390514207679,44533.33333333333
115.27635350318472,102.128025477707,81.64299363057326,44566.66666666667
115.55029193205944,102.05472399150743,81.91173036093419,44600.0
115.24293309469915,102.28638732431436,81.83513186292572,44633.33333333334
115.32492005180114,102.17083806855725,81.9138409493353,44666.66666666666
115.31687415001568,102.34258290616172,82.08792760749033,44700.0
115.275865676326,102.35241657077101,82.09744743173972,44733.33333333334
115.42059838895284,102.34428287477768,82.27246573909405,44766.66666666666
115.26365205565435,102.35291348467413,82.09415210796108,44800.0
115.39551731352651,102.40127105345749,82.21419604561146,44833.33333333334
115.28847424478684,102.20842032930729,81.8430372386817,44866.66666666666
115.35674075640246,102.23754525993077,81.96027697756165,44900.0
115.25313163481954,102.06135881104036,81.74097664543525,44933.33333333333
115.24217091295117,102.04700106157112,81.65464437367305,44966.66666666667
115.44251273701349,102.34697200483221,82.07332317873838,45000.0
115.29373673036093,102.05865180467093,81.61406581740977,45033.33333333333
115.4287685774947,102.01480891719746,81.96507430997876,45066.66666666667
115.23942959189031,102.24996060717476,81.88134881033669,45100.0
115.18434336760313,102.15468985384676,81.66355683590136,45133.33333333334
115.28249908083409,102.2457061820474,82.00840380272074,45166.66666666666
115.14651504805927,102.23824780713274,81.88639109196913,45200.0
115.214055907173,102.01758966244726,81.81991033755274,45233.33333333334
115.1467299578059,102.0357858649789,81.72067510548524,45266.66666666666
115.26294831223629,102.06711497890295,81.76901371308017,45300.0
115.21407764419256,101.95927122504105,81.59324188337482,45333.33333333334
115.06850335070736,101.72952345495159,81.2885863206042,45366.66666666666
115.14240506329115,101.74207531113709,81.34326135517497,45400.0
114.9050365860172,101.59637878545105,81.0935747476366,45433.33333333333
115.02199098905814,101.50809912036043,81.02368054065651,45466.66666666667
114.86293177429735,101.47690946148892,80.93139884145033,45500.0
114.84276442823428,101.47326217549879,80.88446685260674,45533.33333333333
115.26877459844697,101.76954579300072,81.56887565152644,45566.66666666667
115.0736348372998,101.88556352104044,81.38786877381872,45600.0
115.33280590717301,102.10197784810127,82.06642932489451,45633.33333333334
115.20244161358812,102.09352441613588,81.66634819532909,45666.66666666666
115.04919000107284,101.78706683832206,81.35411972964275,45700.0
115.07429460358331,101.79178736187107,81.38601008475486,45733.33333333334
115.05165754747343,101.75286986374851,81.31045488681472,45766.66666666666
115.17634910417335,101.7132818367128,81.3660551442978,45800.0
115.03280542986424,101.61603102779571,81.09308338720103,45833.33333333334
115.21993099787686,102.0448779193206,81.79498407643312,45866.66666666666
115.0434502735758,101.74592318420773,81.24586954189465,45900.0
115.00042819675642,101.74508911844994,81.18741636782102,45933.33333333333
115.35480360934184,102.08694267515922,81.68306794055202,45966.66666666667
115.29036624203822,102.0994957537155,81.65971337579619,46000.0
115.41426282051279,102.00966880341879,81.75635683760684,46033.33333333333
115.11195150734899,101.94984443729211,81.33067803883705,46066.66666666667
115.23921789507564,101.92396202124235,81.43530737045381,46100.0
115.23666988520544,101.92425705396415,81.42471301362515,46133.33333333334
115.16567841880342,102.04620726495726,81.41111111111111,46166.66666666666
115.28693910256409,102.06661324786323,81.61808226495727,46200.0
115.2154750505373,102.17097563570593,81.61567719970209,46233.33333333334
115.32963613150335,102.16554952654538,81.78909990424513,46266.66666666666
115.38299287158208,102.21656559208428,81.78550909671242,46300.0
115.36147462496012,102.20808064687729,81.74478667943399,46333.33333333334
115.4339025428237,102.21326736886904,81.79199914884562,46366.66666666666
115.32234812214064,102.2020427705075,81.7534046175125,46400.0
115.36578359399937,102.17214597297584,81.86586338972229,46433.33333333333
115.42790966994787,102.35123966942149,82.0938042848871,46466.66666666667
115.54747997991385,102.25007268018076,82.13116790443216,46500.0
115.60042544251274,102.39151215925207,82.31099322443406,46533.33333333333
115.36687938068836,102.51433204310074,82.06540956166963,46566.66666666667
115.44773885183045,102.35603235464049,82.13595777089134,46600.0
115.3247986191024,102.480620357778,82.06540956166963,46633.33333333334
115.3690159920821,102.44629369172266,82.24587175079441,46666.66666666666
115.29640047924156,102.46572381101214,82.18125227900192,46700.0
115.28817002656663,102.46085325832159,82.18604469448351,46733.33333333334
115.45857240616941,102.4312523029952,82.10928041269673,46766.66666666666
115.37619097752277,102.43562141390746,81.97662788861399,46800.0
115.42343527925465,102.46836342580409,82.05282413012581,46833.33333333334
115.31244266205343,102.40030405493958,82.00083877224712,46866.66666666666
115.39493067023146,102.35624230033292,82.10025949516395,46900.0
115.41253841746106,102.437750690212,82.27355836849506,46933.33333333333
115.27455048409405,102.08341312905628,81.59586126183636,46966.66666666667
115.46981299161327,102.34698129916131,82.29611397614211,47000.0
115.1738419331012,102.13421968977524,81.70607787274454,47033.33333333333
115.26530020048538,102.14825366677219,81.99891843410363,47066.66666666667
115.1835232668566,102.1414740951778,81.86591220850481,47100.0
115.18363655708056,102.09346739014792,81.64613256729439,47133.33333333334
115.30327694435579,102.07671028832857,81.82819980849027,47166.66666666666
115.31029896797531,102.06798595595276,81.76696989041388,47200.0
115.4183423768486,102.06003298223213,81.90897967868922,47233.33333333334
115.34471752314077,102.07248111501222,81.81410256410257,47266.66666666666
115.39746249601022,102.12450792637514,81.88687626343228,47300.0
115.44408243271879,102.21320724729816,82.07207565162109,47333.33333333334
115.39370099597372,102.1857120152575,81.91793812248358,47366.66666666666
115.47051811824541,102.22576287349017,81.94103623649079,47400.0
115.21113083429049,102.20724130729872,81.96389788033832,47433.33333333333
115.50001310581636,102.28725328300699,82.21789730282298,47466.66666666667
115.07920110192836,102.08455181182457,81.55530832803561,47500.0
115.13485477178423,102.11916161293756,81.55096286839026,47533.33333333333
115.26204915416534,102.10373443983404,81.66467177359294,47566.66666666667
115.23696757787668,102.20616126297944,81.7412852299216,47600.0
115.23116987179488,101.95745192307692,81.62777777777778,47633.33333333334
115.18942042805679,102.09321360457723,81.85431235431236,47666.66666666666
115.27357490993856,102.12417885145159,81.88342339478703,47700.0
115.22525588266329,102.06259892371004,81.95863669937744,47733.33333333334
115.11243009391157,102.08842460694315,81.838055291759,47766.66666666666
115.21359607470718,102.08765959691885,81.97430621504697,47800.0
115.08655165136648,102.1273082199008,81.7636119025008,47833.33333333334
115.19705603038936,102.0945183074813,81.84404347367311,47866.66666666666
115.09493536766264,101.99931129476583,81.63268171222717,47900.0
115.17590683978048,101.93130772319635,81.42834961852495,47933.33333333333
115.4117132867133,101.97441195168469,81.89764780673872,47966.66666666667
115.15176216102142,102.08649889205444,81.72786746860821,48000.0
115.26804368471035,102.08312229608526,81.8611111111111,48033.33333333333
115.11148042629524,102.0525482747705,81.7264429671837,48066.66666666667
115.27087306632762,102.05334816698452,81.86745073108709,48100.0
115.19014456051495,102.04091484647041,81.91257781998523,48133.33333333334
115.06547430621504,102.00150364039251,81.70175160915902,48166.66666666666
115.17228553339665,101.96852907038091,81.82457528753825,48200.0
115.11459322570434,101.99878653582356,81.65329218106996,48233.33333333334
115.051833753678,101.87019230769228,81.83908680117695,48266.66666666666
114.91509037410677,101.8794136191677,81.62321353509878,48300.0
114.93665931063472,101.84801912568308,81.666955653636,48333.33333333334
115.02422236233713,101.87092791088692,81.71169609079445,48366.66666666666
114.90901656642393,101.77511343252085,81.47348844571067,48400.0
115.2621582962492,101.86191460055096,81.83897541852087,48433.33333333333
115.05014208214932,102.20625161456988,82.15776285197623,48466.66666666667
115.09415787824993,102.03764226793359,81.98619087396888,48500.0
115.24017719063721,102.13328615239443,82.07420513223771,48533.33333333333
114.85308722215,101.92268295853373,81.76643702066815,48566.66666666667
115.08917197452229,102.03223869687794,81.93949044585987,48600.0
114.97488925585176,101.9289140520563,81.67442530995254,48633.33333333334
115.06523441578787,102.03242142633393,81.94507674637151,48666.66666666666
114.84294813466788,101.87903288704015,81.69483946444821,48700.0
114.9074361762726,101.97708559888149,81.91178602868831,48733.33333333334
114.99109315933924,101.99407073688572,81.98943607270469,48766.66666666666
114.82992330690244,101.88121669049784,81.78510334069935,48800.0
115.09092580916351,101.85902690205968,81.89099936948297,48833.33333333334
115.23813268328483,102.05876648056407,81.98962019344184,48866.66666666666
115.37425603007205,102.00357627649578,82.23984546308866,48900.0
115.59530646340193,102.19476349587549,82.42421948418084,48933.33333333333
115.30785123966943,101.95677050222505,81.80093769866498,48966.66666666667
115.45287666878576,101.94474464929013,82.01780038143674,49000.0
115.28827611782158,101.99976160203434,81.78435579571943,49033.33333333333
115.44816397594177,102.12807322992508,82.113643558088,49066.66666666667
115.28598787105012,101.97975848494521,81.66161293754655,49100.0
115.28634244543336,102.0628575969485,81.81304301758847,49133.33333333334
115.46285744433894,102.18945868945869,82.07776722591538,49166.66666666666
115.37395800358765,102.21367521367522,81.9102300306004,49200.0
115.387860410682,102.02064049366956,81.78327481646984,49233.33333333334
115.2951631701632,102.09668361941091,81.81291057427421,49266.66666666666
115.42719214941437,102.18336498892056,82.03468924765221,49300.0
115.42088741162816,102.19331011923605,82.04157433787064,49333.33333333334
115.28740733006157,102.2721102641746,82.08034875221885,49366.66666666666
115.55233152473068,102.27535320175095,82.38111713978664,49400.0
115.19193685102778,102.0702479338843,81.76231722822631,49433.33333333333
115.34364777883295,102.16452991452992,82.12290281734727,49466.66666666667
115.2136663474838,101.98404085541016,81.63863176933717,49500.0
115.214863283328,101.96566124055752,81.64219597829556,49533.33333333333
115.31248005106926,101.95403766358123,81.88517395467603,49566.66666666667
115.1751250132993,102.01457601872542,81.62144909032875,49600.0
115.29563996609451,102.1157289680017,81.95751218478492,49633.33333333334
115.1292424726035,101.95709649962762,81.6550696882647,49666.66666666666
115.31588128022837,102.0818775272881,81.91122446282739,49700.0
115.40311628151814,102.27254303311052,82.12765173448439,49733.33333333334
115.272780250053,102.16128946810764,81.78888535706719,49766.66666666666
115.35719961856329,102.16147488874762,81.89907819453275,49800.0
115.31183871137549,102.31494446491553,82.0070011054377,49833.33333333334
115.45194956558592,102.12775482093664,82.05051388005934,49866.66666666666
115.30465780713482,102.24961337841737,81.99698566223691,49900.0
115.17358020767112,102.0333757151939,81.61403369357916,49933.33333333333
115.31537401991949,102.0057745285018,81.86016634880272,49966.66666666667
115.15791785068458,102.48853009558252,82.25058124515628,50000.0
115.19625440962857,102.35331500311268,82.22860033201908,50033.33333333333
114.99276672694391,102.272513562387,82.15564453629553,50066.66666666667
115.10320330663912,102.29057091190909,82.20204081632653,50100.0
115.11774735210541,102.30364246964608,82.22136398863344,50133.33333333334
115.20867918655323,102.4409628553642,82.20579995849764,50166.66666666666
115.20632911392408,102.33686385946785,82.3708085765952,50200.0
115.18656677861016,102.35282872642729,82.26672694394213,50233.33333333334
115.21403873651371,102.25787079162876,82.21162095411412,50266.66666666666
115.15855972962432,102.21905628493437,82.09244767970883,50300.0
115.15411412972831,102.21731444170021,82.07292343689069,50333.33333333334
115.42321591056805,102.22877940985313,82.32824645781879,50366.66666666666
115.03383045525902,102.25298273155417,81.80591313448456,50400.0
115.21211490965813,102.30383465488106,82.22750552450279,50433.33333333333
115.058189429618,102.2257980115123,81.95829408686551,50466.66666666667
115.14262166405024,102.18751962323392,82.0579539508111,50500.0
115.1798518133368,102.29067983881451,82.17652411282985,50533.33333333333
115.18576607818413,102.2757461118117,81.9125157629256,50566.66666666667
115.11041339612768,102.2077969649398,82.00999476713763,50600.0
115.24482450609501,102.32563577133249,81.9259405212274,50633.33333333334
115.30230664144598,102.34930643127363,82.07666036149642,50666.66666666666
115.16807487326142,102.33232809047186,82.11628753412192,50700.0
115.1542961133498,102.33757961783442,82.03933445989861,50733.33333333334
115.22594566489016,102.3830495255427,82.19682828545432,50766.66666666666
115.2073833354998,102.35642792148708,82.05992460678539,50800.0
115.5296322507929,102.34434221907685,82.17705957904118,50833.33333333334
115.1636552710256,102.45246327830496,82.00353568178862,50866.66666666666
115.2592083419797,102.4376945424362,82.15812409213531,50900.0
115.15807347946895,102.41556035813522,82.25084902747761,50933.33333333333
115.17571686902608,102.56401446654611,82.18323430638078,50966.66666666667
115.15247786235823,102.32401222101393,82.05792035627363,51000.0
114.97640732736441,102.42016568899868,82.06630132757024,51033.33333333333
115.25151123740636,102.49516920692328,82.30676827693102,51066.66666666667
115.01252958732121,102.36446434084593,82.22077287228569,51100.0
115.00432232170424,102.36104250283009,82.15431717608315,51133.33333333334
115.05116254984208,102.28954999741079,82.0405468385894,51166.66666666666
115.174321880651,102.46192198398347,82.17641436321364,51200.0
115.02332867277715,102.28380197814717,82.12329760240276,51233.33333333334
115.11064604185623,102.36368126868582,82.06431821136098,51266.66666666666
115.34347414880202,102.10818621269439,82.03357503152586,51300.0
115.35529634300129,102.12300336275746,82.07253572929802,51333.33333333334
115.11950506421637,102.25655215620758,81.80554975462044,51366.66666666666
115.07105160535549,102.080124788769,81.98655920967113,51400.0
114.97332640062395,102.10911217990379,81.79802417782398,51433.33333333333
115.19278058007566,102.21156473308113,81.84410466582598,51466.66666666667
115.09200294241278,102.23652269861286,81.72583018074822,51500.0
115.07245691467004,102.24314312736445,81.67699138293399,51533.33333333333
115.02352788249058,102.23010529052384,81.89442350188483,51566.66666666667
115.04197089741598,102.32421935684326,81.92198746828231,51600.0
115.12184765159752,102.28685723162964,82.08544352959454,51633.33333333334
115.06138988141474,102.2478898037388,82.02395008026514,51666.66666666666
115.1622637569176,102.2707528453587,82.05468831575651,51700.0
115.16743239010128,102.28380494935786,82.03772058055759,51733.33333333334
115.12218900298971,102.37979981801638,82.10885220330171,51766.66666666666
115.33911347978682,102.33627973482386,82.29941505264526,51800.0
115.1080599328339,102.44616378196848,82.20488245931284,51833.33333333334
115.15377616014557,102.35819576238138,82.20569348758613,51866.66666666666
115.07262190665136,102.26430510598308,81.87874595384775,51900.0
115.05578469249245,102.28505795134176,81.86744283178449,51933.33333333333
115.23754062134407,102.41253087222151,82.11371376576108,51966.66666666667
115.120863122319,102.451605355518,81.9842714155726,52000.0
115.24175824175823,102.37938252223968,82.01054421768707,52033.33333333333
115.247098237839,102.34963596074707,81.68966972670677,52066.66666666667
115.37741373852484,102.35475361401285,81.84446554816925,52100.0
115.38509021842356,102.34557349372164,81.85844676585418,52133.33333333334
115.31695156695156,102.35280151946822,81.74936688825578,52166.66666666666
115.35430515986073,102.36403925292817,81.85066476733144,52200.0
115.24575287538252,102.4249762583096,81.76698849846998,52233.33333333334
115.38866293198272,102.58248279743178,82.58504080014325,52266.66666666666
115.12127594000413,102.29933737415243,81.9863879186357,52300.0
115.08734846928292,102.29630675981095,82.01425416067393,52333.33333333334
115.42110420588465,102.46517445008895,82.24869130199335,52366.66666666666
115.14677933018288,102.35707314567496,82.01700226011917,52400.0
115.06616560509556,102.22585987261148,82.09250955414014,52433.33333333333
115.06724050632911,102.46232911392408,82.29154430379748,52466.66666666667
115.23656651924152,102.50955721620659,82.4752935793808,52500.0
115.2565197498856,102.50190635961569,82.51583549387422,52533.33333333333
115.22100650848152,102.4598985291857,82.30369497258238,52566.66666666667
115.23757332510034,102.34326438201091,82.23587527014509,52600.0
115.25888470037695,102.42155206031455,81.97012868841804,52633.33333333334
115.38907354648096,102.31523688931095,81.86103197214308,52666.66666666666
115.30141394956208,102.34678695789809,81.84019204389575,52700.0
115.31436636066263,102.3562572544054,81.795425767648,52733.33333333334
115.4231031946196,102.30758722152164,82.05422446406051,52766.66666666666
115.28252611585943,102.446000844149,81.81940487496044,52800.0
115.41975308641977,102.51775838116957,82.24662525228699,52833.33333333334
115.18644688644687,102.39324960753531,82.08178963893249,52866.66666666666
115.10248592870545,102.28470919324577,82.09701375859913,52900.0
115.13255680633728,102.27355638941003,82.09589326662497,52933.33333333333
115.17119309262164,102.37967032967032,82.02349555206699,52966.66666666667
115.2886000259977,102.50872221500065,82.3329260366567,53000.0
115.35478229090529,102.61705126866451,82.24483136681633,53033.33333333333
115.39738335435057,102.51142812105928,82.15820722992855,53066.66666666667
115.32088062211012,102.5166561580496,82.07369167717529,53100.0
115.37548292784795,102.62159340085621,82.22987365563328,53133.33333333334
115.44309282656364,102.61987052312831,82.2891302077895,53166.66666666666
115.3536149642707,102.52317150063051,82.08125788146279,53200.0
115.62212454598092,102.58553982207717,82.17031636574195,53233.33333333334
115.39376912525059,102.5988445710668,81.92494987865359,53266.66666666666
115.55236361717844,102.53838239949353,82.14128943758574,53300.0
115.53703703703705,102.5485385670571,82.13065843621398,53333.33333333334
115.29048762660541,102.64140649472695,82.13793463506317,53366.66666666666
115.37383836274408,102.65706901952595,82.29552573874909,53400.0
115.31222764058936,102.74297053330568,82.39660717991285,53433.33333333333
115.45228421107464,102.81955513882376,82.31072563421368,53466.66666666667
115.37581392925978,102.8063499505131,82.22581653383341,53500.0
115.40795436786999,102.79301453352085,82.22769182684793,53533.33333333333
115.4406775264578,102.74501971363355,82.40768312927996,53566.66666666667
115.35946254409627,102.73007885453416,82.25415023863873,53600.0
115.37608332463194,102.66179388117365,82.19324945181164,53633.33333333334
115.29886707737288,102.62245483972015,82.12738853503184,53666.66666666666
115.51918659287877,102.62167171348021,82.32241307298736,53700.0
115.577947165083,102.60728829487313,82.36472799415266,53733.33333333334
115.2929961293022,102.63419290720785,82.02440108797991,53766.66666666666
115.4129487445528,102.67306495123472,82.42306495123471,53800.0
115.3471597447432,102.62388848205879,82.13887435924259,53833.33333333334
115.42698173895,102.71420419174105,82.45626686034447,53866.66666666666
115.35809752532109,102.61611151717658,82.20319515505898,53900.0
115.42347513826635,102.65817409766454,82.16631280962491,53933.33333333333
115.48254987629623,102.59598884034321,82.12217718587145,53966.66666666667
115.36721991701245,102.38115756995424,81.7075752739653,54000.0
115.53337369058272,102.59001421277044,82.1178080749592,54033.33333333333
115.43409084951902,102.67287882362191,82.08691777410816,54066.66666666667
115.4122565594611,102.52347251710309,82.12398102277791,54100.0
115.41278079211556,102.53605410080995,82.12188409216009,54133.33333333334
115.2621949621242,102.48921391313463,81.96584624256245,54166.66666666666
115.09149524903414,102.43607079461208,81.95379555184296,54200.0
115.0685496502036,102.42145243813304,81.90858306358984,54233.33333333334
114.98090005232862,102.19484563055993,81.83231292517006,54266.66666666666
114.77789525258517,102.29301941772607,81.87312720802495,54300.0
114.77534232445394,102.29526290002322,81.88186905283787,54333.33333333334
115.0554790068894,102.3026907578318,81.98520733134019,54366.66666666666
114.9742019884877,102.19693877551019,81.79366823652538,54400.0
115.2431449502878,102.39822082679224,82.11637885923601,54433.33333333333
115.1634089953762,102.3243484657419,81.80136086591004,54466.66666666667
115.08563629273362,102.32112309892106,82.07237748602627,54500.0
115.16164362280566,102.41841437522656,82.26754181554556,54533.33333333333
115.30027297543221,102.52367086962174,82.18281554660079,54566.66666666667
115.3331860132588,102.52759651631357,82.29689327960483,54600.0
115.1870225013082,102.34947671376244,82.02179487179487,54633.33333333334
115.23303627267042,102.21281530122994,82.15382009589327,54666.66666666666
114.99757661038149,102.22620908901396,81.7015061496769,54700.0
115.00591109709964,102.30151849516605,81.56749159310634,54733.33333333334
115.15532003759006,102.34308760572205,81.92737809334865,54766.66666666666
115.14540491355778,102.44617184453399,82.00954114129729,54800.0
115.12203131567884,102.25422971836906,81.880096679277,54833.33333333334
115.04516078184109,102.25204918032787,81.708044346364,54866.66666666666
115.01062271062271,102.09921507064364,81.90677655677655,54900.0
115.01690214547355,102.10515436944007,81.9206436420722,54933.33333333333
114.92692307692309,102.08212977498691,81.76773940345369,54966.66666666667
114.97096061354479,102.20254777070065,81.9830755232029,55000.0
114.98858163740871,102.31080731189478,82.03839780436022,55033.33333333333
115.0501876172608,102.22425474254743,81.99583072753805,55066.66666666667
115.15450294241278,102.24855506515344,81.77529949558638,55100.0
115.11872110130308,102.26069251786464,81.79077343421606,55133.33333333334
115.10962846677131,102.12312925170069,82.00614861329147,55166.66666666666
114.96644399565015,102.29905235358086,81.94042255709181,55200.0
115.1538501372275,102.21394541970898,82.1991352079126,55233.33333333334
114.90421096518658,102.13002918490723,81.81569209922868,55266.66666666666
115.18053375196232,102.26439037153322,82.02841444270015,55300.0
115.04036376902228,102.12437460913073,81.99330310610799,55333.33333333334
114.93493329164059,102.1375859912445,81.83244736293517,55366.66666666666
115.17394034536892,102.26161695447409,82.00570381998953,55400.0
114.94835164835163,101.98953427524856,81.7377812663527,55433.33333333333
115.1807482135351,102.10492854140396,81.93185161832703,55466.66666666667
115.27091906721536,102.15875276986387,81.9494301994302,55500.0
115.11890500210173,102.07303488860866,81.89835540142917,55533.33333333333
115.16133354350569,102.1168295502312,81.90213850357294,55566.66666666667
115.07891971416565,102.11577868852459,81.71529529213956,55600.0
115.15112506541078,102.01632653061225,81.86875981161695,55633.33333333334
114.84084249084248,102.04403453689169,81.56705913134485,55666.66666666666
114.98440607012036,102.03772893772891,81.70177917320773,55700.0
114.99871794871795,102.0242019884877,81.69531658817372,55733.33333333334
114.93828155466007,102.12785649291565,81.77322240998309,55766.66666666666
114.94188906331765,101.98804290947149,81.70934065934065,55800.0
114.92260208926876,101.97799936688827,81.52893848264219,55833.33333333334
115.01266086052256,102.02448979591836,82.05888470037695,55866.66666666666
115.06450349796387,102.16941630990915,81.99326511433644,55900.0
114.8695709052852,101.91177394034537,81.71690214547357,55933.33333333333
115.0031977122059,102.01250487456129,81.94683478486938,55966.66666666667
114.8825222396651,101.8787284144427,81.72072213500783,56000.0
115.12996532156369,102.0755569567045,81.81938314417823,56033.33333333333
115.05947877259352,102.0732976040353,81.76263661202185,56066.66666666667
115.17184720041864,101.92796964939821,81.98566195709053,56100.0
115.20099424385135,101.93351648351648,81.98445839874411,56133.33333333334
114.9818636647905,102.07595893266623,81.78145194913488,56166.66666666666
115.25274094183985,102.2156990706902,82.00117468935994,56200.0
114.71112153429226,101.78212945590994,81.59289660204294,56233.33333333334
114.97454212454213,101.92953950811092,81.82430664573522,56266.66666666666
114.90313971742545,101.94335426478285,81.66896912611196,56300.0
114.847200418629,101.96308215593928,81.60939298796441,56333.33333333334
114.96261119832548,101.9482993197279,81.75190999476712,56366.66666666666
114.87506541077973,101.86653584510726,81.70308738880169,56400.0
115.00884353741495,101.83966509680796,81.81268969126111,56433.33333333332
114.98525119866585,101.96789660204294,81.79706066291432,56466.66666666668
115.00981161695448,101.85604395604395,81.71023024594453,56500.0
114.9882783882784,101.87302459445316,81.70355834641548,56533.33333333332
114.93717427558892,101.98790910986031,81.7928392745466,56566.66666666668
115.21127788200958,101.93592349385031,82.0204033771107,56600.0
114.85596546310828,101.82257980115122,81.62974882260595,56633.33333333334
115.00787545787546,101.8334903192046,81.68516483516483,56666.66666666666
114.94129728324451,101.97410633043026,81.74335109840115,56700.0
114.95445209931108,101.97662810347069,81.7348758611725,56733.33333333334
114.96423338566194,101.88414442700157,81.72459445316588,56766.66666666666
114.90313971742545,101.86449502878072,81.55434327577184,56800.0
115.00531135531135,101.91991104133965,81.65554683411825,56833.33333333334
114.89508110936684,101.92880690737832,81.56839351125066,56866.66666666666
