Time[ms],HR[bpm]
1567,53.25444
1600,53.25444
1633,53.25444
1667,53.25444
1700,53.25444
1733,53.25444
1767,53.25444
1800,53.25444
1833,53.25444
1867,54.82233000000001
1900,54.82233000000001
1933,54.82233000000001
1967,54.82233000000001
2000,54.82233000000001
2033,54.82233000000001
2067,54.82233000000001
2100,54.82233000000001
2133,60.81081
2167,60.81081
2200,60.81081
2233,60.81081
2267,60.81081
2300,60.81081
2333,60.81081
2367,60.81081
2400,60.81081
2433,60.81081
2467,60.81081
2500,60.81081
2533,60.81081
2567,60.81081
2600,60.81081
2633,60.81081
2667,60.81081
2700,60.81081
2733,60.81081
2767,60.81081
2800,60.81081
2833,60.81081
2867,60.81081
2900,60.81081
2933,60.81081
2967,60.81081
3000,60.81081
3033,60.81081
3067,58.69565
3100,58.69565
3133,58.69565
3167,58.69565
3200,58.69565
3233,58.69565
3267,58.69565
3300,58.69565
3333,58.69565
3367,58.69565
3400,58.69565
3433,58.69565
3467,58.69565
3500,58.69565
3533,58.69565
3567,58.69565
3600,58.69565
3633,58.69565
3667,58.69565
3700,58.69565
3733,58.69565
3767,58.82353000000001
3800,58.82353000000001
3833,58.82353000000001
3867,58.82353000000001
3900,58.82353000000001
3933,58.82353000000001
3967,58.82353000000001
4000,58.82353000000001
4033,59.34066
4067,59.34066
4100,59.34066
4133,59.34066
4167,59.34066
4200,59.34066
4233,59.34066
4267,59.34066
4300,59.34066
4333,59.34066
4367,59.34066
4400,59.34066
4433,59.34066
4467,59.34066
4500,59.34066
4533,59.34066
4567,59.34066
4600,59.34066
4633,59.34066
4667,59.34066
4700,59.34066
4733,59.34066
4767,59.34066
4800,59.21053000000001
4833,59.21053000000001
4867,59.21053000000001
4900,59.21053000000001
4933,59.21053000000001
4967,59.21053000000001
5000,59.21053000000001
5033,59.21053000000001
5067,59.21053000000001
5100,59.21053000000001
5133,60.0
5167,60.0
5200,60.0
5233,60.0
5267,60.0
5300,60.0
5333,60.0
5367,60.0
5400,60.0
5433,60.0
5467,60.0
5500,60.0
5533,60.0
5567,60.0
5600,60.0
5633,60.0
5667,60.0
5700,60.0
5733,60.0
5767,60.0
5800,58.82353000000001
5833,58.82353000000001
5867,58.82353000000001
5900,58.82353000000001
5933,58.82353000000001
5967,58.82353000000001
6000,58.82353000000001
6033,58.82353000000001
6067,58.06452
6100,58.06452
6133,58.06452
6167,58.06452
6200,58.06452
6233,58.06452
6267,58.06452
6300,58.06452
6333,58.06452
6367,58.06452
6400,58.06452
6433,58.06452
6467,58.06452
6500,58.06452
6533,58.06452
6567,58.06452
6600,58.06452
6633,58.06452
6667,58.06452
6700,58.06452
6733,58.06452
6767,58.06452
6800,58.06452
6833,58.06452
6867,58.06452
6900,58.06452
6933,58.06452
6967,58.06452
7000,58.06452
7033,58.06452
7067,58.06452
7100,58.06452
7133,57.75401
7167,57.75401
7200,57.75401
7233,57.75401
7267,57.75401
7300,57.75401
7333,57.75401
7367,57.75401
7400,57.75401
7433,57.75401
7467,57.75401
7500,57.75401
7533,57.75401
7567,57.75401
7600,57.75401
7633,57.75401
7667,57.75401
7700,57.75401
7733,56.96202
7767,61.01695
7800,61.01695
7833,61.01695
7867,61.36364
7900,61.36364
7933,61.36364
7967,61.36364
8000,61.36364
8033,61.36364
8067,61.36364
8100,61.36364
8133,61.36364
8167,61.36364
8200,61.36364
8233,61.71429000000001
8267,61.71429000000001
8300,61.71429000000001
8333,61.71429000000001
8367,61.71429000000001
8400,61.71429000000001
8433,61.71429000000001
8467,61.71429000000001
8500,61.71429000000001
8533,61.71429000000001
8567,61.71429000000001
8600,61.71429000000001
8633,61.71429000000001
8667,61.71429000000001
8700,61.71429000000001
8733,63.82979
8767,63.82979
8800,63.82979
8833,63.82979
8867,63.82979
8900,63.82979
8933,63.82979
8967,63.82979
9000,63.82979
9033,63.82979
9067,63.82979
9100,63.82979
9133,63.82979
9167,63.82979
9200,63.82979
9233,63.82979
9267,63.82979
9300,63.82979
9333,63.82979
9367,63.82979
9400,63.82979
9433,63.82979
9467,56.25
9500,56.25
9533,56.25
9567,56.25
9600,56.25
9633,56.25
9667,56.25
9700,56.25
9733,56.25
9767,56.25
9800,56.25
9833,56.25
9867,55.55556
9900,55.55556
9933,55.55556
9967,55.55556
10000,55.55556
10033,55.55556
10067,55.90062
10100,55.90062
10133,55.90062
10167,55.90062
10200,55.90062
10233,55.90062
10267,55.90062
10300,55.90062
10333,57.14286
10367,57.14286
10400,57.14286
10433,57.14286
10467,57.14286
10500,57.14286
10533,57.14286
10567,57.14286
10600,57.14286
10633,57.44681
10667,57.44681
10700,57.44681
10733,57.44681
10767,57.44681
10800,57.44681
10833,57.44681
10867,56.25
10900,56.25
10933,56.25
10967,56.25
11000,56.25
11033,56.25
11067,56.25
11100,56.25
11133,56.25
11167,56.25
11200,56.25
11233,57.44681
11267,57.44681
11300,57.44681
11333,56.5445
11367,56.5445
11400,56.5445
11433,56.5445
11467,56.5445
11500,56.5445
11533,56.5445
11567,56.5445
11600,56.5445
11633,56.5445
11667,56.5445
11700,56.5445
11733,56.5445
11767,56.5445
11800,56.96202
11833,56.96202
11867,56.96202
11900,56.96202
11933,56.96202
11967,56.96202
12000,56.96202
12033,56.96202
12067,56.96202
12100,56.96202
12133,56.96202
12167,56.96202
12200,56.96202
12233,56.96202
12267,56.96202
12300,56.96202
12333,56.96202
12367,56.96202
12400,56.96202
12433,56.96202
12467,56.96202
12500,56.96202
12533,56.96202
12567,56.96202
12600,56.96202
12633,56.96202
12667,56.96202
12700,56.96202
12733,56.96202
12767,56.96202
12800,56.96202
12833,56.96202
12867,56.96202
12900,57.14286
12933,57.14286
12967,57.14286
13000,57.14286
13033,57.14286
13067,50.5618
13100,50.5618
13133,50.5618
13167,50.5618
13200,50.5618
13233,50.5618
13267,50.5618
13300,50.5618
13333,50.5618
13367,50.5618
13400,50.5618
13433,50.5618
13467,50.5618
13500,50.5618
13533,50.5618
13567,50.5618
13600,50.5618
13633,50.5618
13667,50.5618
13700,50.5618
13733,50.5618
13767,50.5618
13800,50.5618
13833,50.5618
13867,50.5618
13900,50.5618
13933,50.5618
13967,45.28302
14000,45.28302
14033,47.87234
14067,47.87234
14100,47.87234
14133,47.87234
14167,47.87234
14200,47.87234
14233,47.87234
14267,47.87234
14300,47.87234
14333,47.87234
14367,47.87234
14400,47.87234
14433,47.87234
14467,47.87234
14500,47.87234
14533,47.87234
14567,47.87234
14600,51.79856
14633,51.79856
14667,51.79856
14700,51.79856
14733,51.79856
14767,51.79856
14800,51.79856
14833,51.79856
14867,51.79856
14900,51.79856
14933,51.79856
14967,53.89222
15000,53.89222
15033,53.89222
15067,53.89222
15100,53.89222
15133,53.89222
15167,53.89222
15200,53.89222
15233,53.89222
15267,53.89222
15300,53.89222
15333,53.89222
15367,53.89222
15400,53.89222
15433,53.89222
15467,53.89222
15500,53.89222
15533,53.89222
15567,53.89222
15600,53.89222
15633,53.89222
15667,53.89222
15700,53.89222
15733,53.89222
15767,53.89222
15800,53.89222
15833,53.89222
15867,53.89222
15900,53.89222
15933,53.89222
15967,53.89222
16000,54.54546
16033,54.54546
16067,54.54546
16100,54.54546
16133,54.54546
16167,54.54546
16200,54.54546
16233,52.63158000000001
16267,52.63158000000001
16300,52.63158000000001
16333,52.63158000000001
16367,52.63158000000001
16400,52.63158000000001
16433,52.63158000000001
16467,52.63158000000001
16500,63.15789
16533,63.15789
16567,63.15789
16600,63.15789
16633,63.15789
16667,63.15789
16700,63.15789
16733,63.15789
16767,63.15789
16800,63.15789
16833,63.15789
16867,63.15789
16900,63.15789
16933,63.15789
16967,63.15789
17000,63.15789
17033,63.52941
17067,63.52941
17100,63.52941
17133,61.76471
17167,62.06896999999999
17200,62.06896999999999
17233,62.06896999999999
17267,62.06896999999999
17300,62.06896999999999
17333,62.06896999999999
17367,62.06896999999999
17400,62.06896999999999
17433,62.06896999999999
17467,62.06896999999999
17500,62.06896999999999
17533,62.06896999999999
17567,62.06896999999999
17600,62.06896999999999
17633,62.06896999999999
17667,62.06896999999999
17700,62.06896999999999
17733,62.06896999999999
17767,62.06896999999999
17800,62.06896999999999
17833,62.06896999999999
17867,64.28571
17900,64.28571
17933,64.28571
17967,64.28571
18000,64.28571
18033,64.28571
18067,64.28571
18100,64.28571
18133,64.28571
18167,65.06024000000001
18200,65.06024000000001
18233,65.06024000000001
18267,65.06024000000001
18300,65.06024000000001
18333,65.06024000000001
18367,65.06024000000001
18400,65.06024000000001
18433,65.06024000000001
18467,65.06024000000001
18500,65.06024000000001
18533,65.06024000000001
18567,65.06024000000001
18600,67.02128
18633,67.02128
18667,67.02128
18700,67.02128
18733,67.02128
18767,67.02128
18800,67.37968000000001
18833,67.37968000000001
18867,67.74194
18900,67.74194
18933,67.74194
18967,72.36180999999998
19000,72.0
19033,72.0
19067,72.0
19100,72.0
19133,71.18644
19167,71.18644
19200,71.18644
19233,71.18644
19267,71.18644
19300,71.18644
19333,71.18644
19367,71.18644
19400,71.18644
19433,71.18644
19467,69.23076999999999
19500,69.23076999999999
19533,69.23076999999999
19567,69.23076999999999
19600,69.23076999999999
19633,69.23076999999999
19667,69.23076999999999
19700,69.23076999999999
19733,69.23076999999999
19767,69.23076999999999
19800,71.28713
19833,71.28713
19867,71.28713
19900,71.59091
19933,71.59091
19967,71.59091
20000,71.59091
20033,71.59091
20067,71.59091
20100,71.59091
20133,71.59091
20167,71.59091
20200,71.59091
20233,71.59091
20267,71.59091
20300,71.59091
20333,71.59091
20367,71.59091
20400,71.59091
20433,71.59091
20467,71.59091
20500,71.59091
20533,71.59091
20567,71.59091
20600,71.59091
20633,71.59091
20667,71.59091
20700,71.59091
20733,71.59091
20767,76.05634
20800,76.05634
20833,76.05634
20867,76.05634
20900,76.05634
20933,76.05634
20967,71.18644
21000,71.18644
21033,71.18644
21067,71.18644
21100,71.18644
21133,71.18644
21167,71.18644
21200,71.18644
21233,71.18644
21267,71.18644
21300,71.18644
21333,71.18644
21367,71.18644
21400,71.18644
21433,71.18644
21467,71.18644
21500,71.18644
21533,61.01695
21567,61.01695
21600,61.01695
21633,61.01695
21667,61.01695
21700,61.01695
21733,61.01695
21767,61.01695
21800,61.01695
21833,61.01695
21867,60.40268
21900,60.40268
21933,60.40268
21967,60.40268
22000,60.40268
22033,60.40268
22067,60.40268
22100,60.40268
22133,60.40268
22167,60.40268
22200,60.40268
22233,60.40268
22267,60.40268
22300,60.40268
22333,60.40268
22367,60.40268
22400,60.40268
22433,60.40268
22467,60.40268
22500,60.40268
22533,60.40268
22567,60.40268
22600,60.40268
22633,60.40268
22667,60.40268
22700,60.40268
22733,53.46535
22767,53.46535
22800,53.46535
22833,53.57143000000001
22867,53.57143000000001
22900,53.57143000000001
22933,53.57143000000001
22967,53.57143000000001
23000,53.57143000000001
23033,53.57143000000001
23067,53.57143000000001
23100,53.57143000000001
23133,53.57143000000001
23167,53.57143000000001
23200,53.57143000000001
23233,53.57143000000001
23267,53.57143000000001
23300,53.57143000000001
23333,53.57143000000001
23367,53.57143000000001
23400,53.57143000000001
23433,53.57143000000001
23467,53.57143000000001
23500,53.57143000000001
23533,53.57143000000001
23567,53.57143000000001
23600,53.57143000000001
23633,53.57143000000001
23667,53.57143000000001
23700,53.57143000000001
23733,53.57143000000001
23767,53.57143000000001
23800,53.57143000000001
23833,53.57143000000001
23867,53.57143000000001
23900,53.57143000000001
23933,53.57143000000001
23967,49.31507
24000,48.91304
24033,48.91304
24067,48.91304
24100,48.91304
24133,48.91304
24167,48.91304
24200,48.91304
24233,48.91304
24267,48.91304
24300,48.91304
24333,48.91304
24367,48.91304
24400,48.91304
24433,48.91304
24467,48.91304
24500,48.91304
24533,48.91304
24567,48.91304
24600,48.91304
24633,48.91304
24667,48.91304
24700,48.64865
24733,48.64865
24767,48.64865
24800,48.64865
24833,48.64865
24867,48.64865
24900,48.64865
24933,48.64865
24967,48.64865
25000,48.64865
25033,48.64865
25067,48.64865
25100,48.64865
25133,48.64865
25167,48.64865
25200,48.91304
25233,48.91304
25267,48.91304
25300,48.91304
25333,48.91304
25367,48.91304
25400,48.91304
25433,48.91304
25467,48.91304
25500,48.91304
25533,48.91304
25567,48.91304
25600,48.91304
25633,48.91304
25667,48.64865
25700,48.64865
25733,48.64865
25767,48.64865
25800,48.64865
25833,48.64865
25867,48.64865
25900,44.44444
25933,44.44444
25967,44.44444
26000,44.44444
26033,44.44444
26067,44.44444
26100,44.44444
26133,44.44444
26167,44.44444
26200,44.44444
26233,44.44444
26267,44.7205
26300,46.63213
26333,45.0
26367,45.0
26400,45.0
26433,45.0
26467,48.12834
26500,54.27136
26533,54.27136
26567,54.27136
26600,54.27136
26633,54.27136
26667,54.27136
26700,54.21686999999999
26733,54.21686999999999
26767,65.06024000000001
26800,65.06024000000001
26833,65.06024000000001
26867,65.06024000000001
26900,65.06024000000001
26933,65.06024000000001
26967,65.06024000000001
27000,69.61326
27033,69.61326
27067,69.61326
27100,69.61326
27133,69.61326
27167,69.61326
27200,69.61326
27233,69.61326
27267,69.61326
27300,70.0
27333,70.0
27367,70.0
27400,70.0
27433,70.0
27467,73.84615
27500,73.84615
27533,73.84615
27567,74.22681
27600,74.22681
27633,74.22681
27667,74.22681
27700,74.22681
27733,74.22681
27767,74.22681
27800,74.22681
27833,87.5
27867,87.5
27900,87.5
27933,87.5
27967,87.5
28000,87.5
28033,89.44099
28067,89.44099
28100,89.44099
28133,100.6211
28167,100.6211
28200,100.6211
28233,100.6211
28267,100.6211
28300,100.6211
28333,100.6211
28367,100.6211
28400,100.6211
28433,104.0462
28467,104.0462
28500,104.0462
28533,105.3191
28567,105.3191
28600,105.3191
28633,105.3191
28667,105.3191
28700,105.3191
28733,105.3191
28767,105.3191
28800,105.3191
28833,105.3191
28867,105.3191
28900,105.3191
28933,105.3191
28967,107.4627
29000,107.4627
29033,107.4627
29067,107.4627
29100,104.2105
29133,104.2105
29167,104.2105
29200,104.2105
29233,104.7619
29267,104.7619
29300,108.0
29333,108.0
29367,99.0
29400,90.0
29433,90.0
29467,86.17021
29500,86.17021
29533,86.17021
29567,86.63101999999998
29600,86.63101999999998
29633,86.63101999999998
29667,86.63101999999998
29700,86.63101999999998
29733,86.63101999999998
29767,86.63101999999998
29800,87.09676999999998
29833,87.09676999999998
29867,90.0
29900,90.0
29933,90.0
29967,90.0
30000,90.0
30033,90.0
30067,90.0
30100,90.56604
30133,90.56604
30167,90.56604
30200,90.56604
30233,90.56604
30267,85.26316
30300,85.26316
30333,85.26316
30367,85.26316
30400,75.78947
30433,75.78947
30467,75.78947
30500,75.78947
30533,75.78947
30567,75.78947
30600,75.78947
30633,75.78947
30667,75.78947
30700,75.78947
30733,75.78947
30767,82.35294
30800,82.35294
30833,82.35294
30867,82.35294
30900,82.35294
30933,82.35294
30967,82.35294
31000,82.35294
31033,82.35294
31067,82.35294
31100,82.35294
31133,82.35294
31167,82.35294
31200,82.35294
31233,82.35294
31267,82.35294
31300,78.26087
31333,78.26087
31367,78.26087
31400,78.26087
31433,78.26087
31467,78.26087
31500,78.26087
31533,78.26087
31567,78.26087
31600,78.26087
31633,78.26087
31667,78.26087
31700,78.26087
31733,77.83784
31767,77.83784
31800,77.83784
31833,77.83784
31867,77.83784
31900,77.83784
31933,77.83784
31967,77.83784
32000,73.25581
32033,73.25581
32067,73.25581
32100,73.25581
32133,73.25581
32167,73.25581
32200,73.25581
32233,73.25581
32267,73.25581
32300,73.25581
32333,73.25581
32367,73.25581
32400,73.25581
32433,66.31579
32467,66.31579
32500,66.31579
32533,66.31579
32567,66.31579
32600,66.31579
32633,66.31579
32667,66.31579
32700,66.31579
32733,66.31579
32767,66.31579
32800,66.31579
32833,66.31579
32867,66.31579
32900,66.31579
32933,60.67416
32967,60.67416
33000,60.67416
33033,60.67416
33067,60.67416
33100,60.67416
33133,60.67416
33167,60.67416
33200,60.67416
33233,60.67416
33267,60.67416
33300,50.5618
33333,50.70422
33367,50.70422
33400,50.70422
33433,50.70422
33467,50.70422
33500,50.70422
33533,50.70422
33567,50.70422
33600,50.70422
33633,50.70422
33667,50.70422
33700,50.70422
33733,50.70422
33767,50.70422
33800,50.70422
33833,50.70422
33867,50.70422
33900,50.70422
33933,50.70422
33967,50.70422
34000,50.70422
34033,50.70422
34067,50.70422
34100,50.70422
34133,50.70422
34167,50.70422
34200,50.70422
34233,50.70422
34267,50.70422
34300,50.70422
34333,50.70422
34367,50.70422
34400,50.70422
34433,50.70422
34467,50.70422
34500,50.70422
34533,55.6701
34567,55.6701
34600,55.6701
34633,55.6701
34667,55.6701
34700,55.6701
34733,55.6701
34767,55.6701
34800,55.6701
34833,55.6701
34867,55.6701
34900,55.6701
34933,55.6701
34967,55.6701
35000,55.6701
35033,55.6701
35067,42.85714
35100,42.85714
35133,42.85714
35167,42.85714
35200,42.85714
35233,42.85714
35267,42.85714
35300,42.85714
35333,42.85714
35367,42.85714
35400,42.85714
35433,42.85714
35467,42.85714
35500,42.85714
35533,42.85714
35567,42.85714
35600,42.85714
35633,42.85714
35667,42.85714
35700,42.85714
35733,42.85714
35767,42.85714
35800,42.85714
35833,42.85714
35867,42.85714
35900,42.85714
35933,42.85714
35967,42.85714
36000,42.85714
36033,39.70588
36067,39.70588
36100,39.70588
36133,39.70588
36167,39.70588
36200,39.70588
36233,39.70588
36267,39.70588
36300,39.70588
36333,39.70588
36367,39.70588
36400,39.70588
36433,39.70588
36467,39.70588
36500,39.70588
36533,39.70588
36567,39.70588
36600,39.70588
36633,39.70588
36667,39.70588
36700,43.11377
36733,43.11377
36767,43.11377
36800,43.11377
36833,43.11377
36867,43.11377
36900,43.11377
36933,43.11377
36967,43.11377
37000,43.11377
37033,43.11377
37067,43.11377
37100,40.0
37133,41.37931
37167,41.37931
37200,41.37931
37233,41.37931
37267,41.37931
37300,41.37931
37333,41.37931
37367,41.37931
37400,41.37931
37433,41.37931
37467,41.37931
37500,41.37931
37533,41.37931
37567,41.37931
37600,41.37931
37633,41.37931
37667,41.37931
37700,41.37931
37733,41.37931
37767,41.37931
37800,41.37931
37833,41.37931
37867,41.37931
37900,41.37931
37933,41.37931
37967,41.37931
38000,41.37931
38033,41.37931
38067,41.37931
38100,41.37931
38133,44.11765
38167,41.86047
38200,42.10526
38233,42.10526
38267,42.10526
38300,42.10526
38333,42.10526
38367,42.10526
38400,42.10526
38433,42.10526
38467,42.10526
38500,42.10526
38533,42.10526
38567,42.10526
38600,42.10526
38633,42.10526
38667,42.10526
38700,42.10526
38733,42.10526
38767,42.10526
38800,42.10526
38833,42.10526
38867,42.10526
38900,42.10526
38933,42.10526
38967,42.10526
39000,42.10526
39033,42.10526
39067,42.10526
39100,42.10526
39133,44.55445
39167,44.55445
39200,44.55445
39233,55.38462
39267,55.38462
39300,55.38462
39333,55.38462
39367,55.38462
39400,55.38462
39433,55.38462
39467,55.38462
39500,55.38462
39533,55.38462
39567,55.38462
39600,55.38462
39633,55.38462
39667,55.38462
39700,55.38462
39733,55.38462
39767,55.38462
39800,55.38462
39833,55.38462
39867,55.38462
39900,55.38462
39933,55.38462
39967,55.38462
40000,55.38462
40033,55.38462
40067,55.38462
40100,55.38462
40133,56.25
40167,56.25
40200,56.25
40233,56.25
40267,56.25
40300,56.25
40333,56.25
40367,56.25
40400,56.25
40433,56.25
40467,56.25
40500,56.25
40533,56.25
40567,56.25
40600,56.25
40633,56.25
40667,56.25
40700,56.25
40733,56.25
40767,56.25
40800,56.25
40833,56.25
40867,56.25
40900,56.25
40933,56.25
40967,56.25
41000,56.25
41033,56.25
41067,56.25
41100,57.14286
41133,57.14286
41167,57.14286
41200,57.14286
41233,57.14286
41267,57.14286
41300,57.14286
41333,57.14286
41367,57.14286
41400,57.14286
41433,57.14286
41467,57.14286
41500,57.14286
41533,57.14286
41567,57.14286
41600,57.14286
41633,57.32484
41667,57.32484
41700,57.32484
41733,57.32484
41767,57.32484
41800,57.32484
41833,57.32484
41867,57.32484
41900,57.32484
41933,57.32484
41967,57.32484
42000,57.32484
42033,57.32484
42067,57.32484
42100,57.32484
42133,57.32484
42167,57.32484
42200,57.32484
42233,57.32484
42267,57.32484
42300,57.32484
42333,57.32484
42367,57.32484
42400,57.32484
42433,57.32484
42467,57.32484
42500,57.32484
42533,57.32484
42567,53.73134
42600,53.73134
42633,53.73134
42667,53.73134
42700,55.21473
42733,55.21473
42767,55.21473
42800,55.21473
42833,55.21473
42867,55.21473
42900,55.21473
42933,54.87805
42967,54.87805
43000,54.87805
43033,54.87805
43067,54.87805
43100,54.87805
43133,54.87805
43167,54.87805
43200,54.87805
43233,54.87805
43267,54.87805
43300,54.87805
43333,54.54546
43367,54.54546
43400,54.54546
43433,54.54546
43467,54.54546
43500,56.25
43533,56.25
43567,56.25
43600,56.25
43633,56.25
43667,56.25
43700,56.25
43733,56.25
43767,56.25
43800,56.25
43833,56.25
43867,56.25
43900,56.25
43933,55.55556
43967,55.55556
44000,55.55556
44033,55.55556
44067,55.55556
44100,55.55556
44133,55.55556
44167,55.55556
44200,55.55556
44233,55.55556
44267,55.55556
44300,55.55556
44333,55.55556
44367,55.55556
44400,55.55556
44433,55.55556
44467,55.55556
44500,55.55556
44533,55.55556
44567,55.6701
44600,55.6701
44633,55.6701
44667,55.38462
44700,55.38462
44733,55.6701
44767,55.6701
44800,55.6701
44833,55.6701
44867,55.6701
44900,55.6701
44933,54.87805
44967,54.54546
45000,54.54546
45033,54.54546
45067,54.54546
45100,54.54546
45133,54.54546
45167,54.54546
45200,54.54546
45233,54.54546
45267,54.54546
45300,54.54546
45333,54.54546
45367,54.54546
45400,54.54546
45433,54.54546
45467,54.54546
45500,54.54546
45533,54.54546
45567,54.54546
45600,54.54546
45633,54.54546
45667,54.54546
45700,54.54546
45733,54.54546
45767,54.54546
45800,53.73134
45833,53.73134
45867,53.73134
45900,53.73134
45933,52.94118
45967,52.94118
46000,52.94118
46033,52.94118
46067,52.94118
46100,52.94118
46133,52.94118
46167,52.94118
46200,52.94118
46233,52.94118
46267,52.94118
46300,52.94118
46333,52.94118
46367,52.94118
46400,52.94118
46433,52.94118
46467,52.94118
46500,52.63158000000001
46533,56.25
46567,56.25
46600,56.25
46633,56.25
46667,56.25
46700,56.25
46733,56.5445
46767,56.5445
46800,56.5445
46833,56.5445
46867,56.5445
46900,56.5445
46933,55.55556
46967,55.55556
47000,55.55556
47033,55.55556
47067,60.33519
47100,60.33519
47133,60.33519
47167,60.33519
47200,60.33519
47233,60.0
47267,60.0
47300,60.0
47333,60.0
47367,60.0
47400,70.0
47433,70.0
47467,70.0
47500,70.0
47533,74.22681
47567,74.22681
47600,74.22681
47633,74.22681
47667,74.22681
47700,74.22681
47733,74.22681
47767,74.22681
47800,74.22681
47833,83.50516
47867,84.70588000000002
47900,84.70588000000002
47933,84.70588000000002
47967,84.70588000000002
48000,84.70588000000002
48033,84.70588000000002
48067,84.70588000000002
48100,84.70588000000002
48133,84.70588000000002
48167,84.70588000000002
48200,84.70588000000002
48233,84.70588000000002
48267,95.29412
48300,104.7619
48333,104.7619
48367,104.7619
48400,104.7619
48433,114.2857
48467,114.2857
48500,114.2857
48533,114.2857
48567,114.2857
48600,114.2857
48633,115.2709
48667,115.2709
48700,122.0339
48733,122.0339
48767,122.0339
48800,122.0339
48833,122.0339
48867,122.0339
48900,122.0339
48933,122.0339
48967,122.0339
49000,122.0339
49033,122.0339
49067,122.0339
49100,122.5131
49133,122.5131
49167,122.5131
49200,122.5131
49233,122.5131
49267,122.5131
49300,122.5131
49333,122.5131
49367,122.5131
49400,122.5131
49433,122.5131
49467,122.5131
49500,122.5131
49533,122.5131
49567,123.8095
49600,123.8095
49633,123.8095
49667,123.8095
49700,123.8095
49733,123.8095
49767,123.8095
49800,123.8095
49833,123.8095
49867,123.8095
49900,123.8095
49933,123.8095
49967,123.8095
50000,123.8095
50033,123.8095
50067,123.5294
50100,123.1579
50133,123.1579
50167,123.1579
50200,123.1579
50233,123.1579
50267,123.1579
50300,123.1579
50333,123.1579
50367,123.1579
50400,123.1579
50433,123.1579
50467,123.1579
50500,123.1579
50533,123.1579
50567,122.5131
50600,122.5131
50633,122.5131
50667,122.5131
50700,122.5131
50733,122.5131
50767,122.5131
50800,122.5131
50833,122.5131
50867,122.5131
50900,122.5131
50933,122.5131
50967,122.5131
51000,122.5131
51033,121.3483
51067,121.2435
51100,121.2435
51133,121.2435
51167,121.2435
51200,121.2435
51233,121.2435
51267,121.2435
51300,121.2435
51333,121.2435
51367,121.2435
51400,121.2435
51433,121.2435
51467,120.0
51500,121.2435
51533,121.2435
51567,121.2435
51600,121.2435
51633,121.2435
51667,121.2435
51700,121.2435
51733,121.2435
51767,121.2435
51800,121.2435
51833,121.2435
51867,121.2435
51900,119.337
51933,119.337
51967,120.0
52000,120.0
52033,120.0
52067,120.0
52100,120.0
52133,120.0
52167,120.0
52200,120.0
52233,120.0
52267,120.0
52300,118.6813
52333,118.6813
52367,118.6813
52400,120.0
52433,120.6186
52467,120.0
52500,120.0
52533,120.0
52567,120.0
52600,120.0
52633,120.0
52667,120.0
52700,120.0
52733,123.4286
52767,123.4286
52800,123.4286
52833,123.4286
52867,123.4286
52900,123.4286
52933,123.4286
52967,123.4286
53000,123.4286
53033,123.4286
53067,123.8095
53100,123.8095
53133,123.8095
53167,123.8095
53200,123.8095
53233,123.8095
53267,123.8095
53300,123.8095
53333,123.8095
53367,123.8095
53400,124.1379
53433,124.1379
53467,124.1379
53500,124.1379
53533,124.1379
53567,123.4286
53600,123.4286
53633,123.4286
53667,123.4286
53700,123.4286
53733,123.4286
53767,116.4179
53800,116.4179
53833,116.4179
53867,116.4179
53900,116.129
53933,116.129
53967,116.129
54000,116.129
54033,116.129
54067,116.129
54100,116.129
54133,116.129
54167,116.129
54200,116.129
54233,116.129
54267,116.129
54300,116.129
54333,116.129
54367,114.7059
54400,113.089
54433,113.089
54467,113.089
54500,113.089
54533,113.089
54567,113.089
54600,113.089
54633,113.089
54667,113.089
54700,113.089
54733,113.089
54767,113.089
54800,113.089
54833,115.1163
54867,115.1163
54900,115.1163
54933,115.1163
54967,115.1163
55000,115.1163
55033,115.1163
55067,111.9171
55100,111.9171
55133,102.5907
55167,102.5907
55200,102.5907
55233,102.0619
55267,102.0619
55300,102.0619
55333,102.5907
55367,102.5907
55400,102.5907
55433,102.5907
55467,100.5587
55500,100.5587
55533,100.5587
55567,100.5587
55600,100.5587
55633,100.5587
55667,100.5587
55700,100.5587
55733,99.49749
55767,99.49749
55800,99.49749
55833,99.49749
55867,99.49749
55900,99.49749
55933,97.29729
55967,97.29729
56000,97.29729
56033,97.29729
56067,97.29729
56100,97.29729
56133,97.29729
56167,97.29729
56200,97.29729
56233,97.29729
56267,97.29729
56300,97.29729
56333,97.29729
56367,97.29729
56400,95.29412
56433,94.24084
56467,94.24084
56500,94.24084
56533,94.73684
56567,94.73684
56600,94.73684
56633,94.73684
56667,94.73684
56700,94.73684
56733,94.73684
56767,85.26316
56800,85.26316
56833,85.26316
56867,85.26316
56900,85.26316
56933,88.34356
56967,88.34356
57000,88.34356
57033,88.34356
57067,88.34356
57100,88.34356
57133,88.04348
57167,88.04348
57200,88.04348
57233,88.04348
57267,88.04348
57300,88.04348
57333,88.04348
57367,88.04348
57400,88.04348
57433,88.04348
57467,87.56756999999998
57500,87.56756999999998
57533,87.56756999999998
57567,87.56756999999998
57600,87.56756999999998
57633,87.56756999999998
57667,87.56756999999998
57700,87.56756999999998
57733,87.56756999999998
57767,87.56756999999998
57800,86.22755
57833,86.17021
57867,86.17021
57900,86.17021
57933,86.17021
57967,86.17021
58000,86.17021
58033,86.17021
58067,86.17021
58100,86.63101999999998
58133,86.63101999999998
58167,86.63101999999998
58200,86.63101999999998
58233,86.63101999999998
58267,86.63101999999998
58300,86.63101999999998
58333,86.63101999999998
58367,86.63101999999998
58400,86.63101999999998
58433,87.80488000000004
58467,87.80488000000004
58500,87.80488000000004
58533,87.56756999999998
58567,87.56756999999998
58600,87.56756999999998
58633,87.56756999999998
58667,87.56756999999998
58700,87.56756999999998
58733,87.56756999999998
58767,87.56756999999998
58800,87.56756999999998
58833,87.56756999999998
58867,87.56756999999998
58900,87.56756999999998
58933,87.56756999999998
58967,87.56756999999998
59000,87.56756999999998
59033,87.56756999999998
59067,87.56756999999998
59100,87.56756999999998
59133,87.56756999999998
59167,87.56756999999998
59200,85.71429
59233,85.71429
59267,85.71429
59300,85.71429
59333,85.71429
59367,85.71429
59400,85.71429
59433,85.71429
59467,82.65306
59500,82.65306
59533,82.65306
59567,82.65306
59600,82.65306
59633,82.65306
59667,82.65306
59700,82.65306
59733,82.65306
59767,82.28571
59800,82.28571
59833,82.28571
59867,82.28571
59900,82.28571
59933,82.28571
59967,82.28571
60000,82.28571
60033,82.28571
60067,82.28571
60100,82.28571
60133,82.28571
60167,82.65306
60200,82.65306
60233,82.65306
60267,82.65306
60300,82.65306
60333,82.65306
60367,82.65306
60400,82.65306
60433,82.65306
60467,82.28571
60500,82.28571
60533,82.28571
60567,82.28571
60600,82.28571
60633,82.28571
60667,82.28571
60700,82.28571
60733,82.28571
60767,82.28571
60800,82.28571
60833,82.28571
60867,82.65306
60900,82.23351
60933,82.23351
60967,82.23351
61000,82.23351
61033,82.23351
61067,82.23351
61100,82.23351
61133,82.23351
61167,82.75862
61200,82.75862
61233,82.75862
61267,82.75862
61300,82.75862
61333,82.75862
61367,82.75862
61400,82.75862
61433,82.75862
61467,82.75862
61500,82.75862
61533,82.75862
61567,82.75862
61600,82.75862
61633,82.75862
61667,82.75862
61700,82.75862
61733,82.75862
61767,81.40704000000002
61800,81.40704000000002
61833,81.40704000000002
61867,81.40704000000002
61900,81.40704000000002
61933,80.0
61967,80.0
62000,80.0
62033,80.0
62067,80.0
62100,80.0
62133,80.0
62167,80.0
62200,80.0
62233,80.0
62267,80.0
62300,80.0
62333,80.0
62367,80.0
62400,80.0
62433,80.0
62467,80.0
62500,80.0
62533,80.0
62567,79.24529
62600,79.24529
62633,79.24529
62667,79.24529
62700,79.24529
62733,79.24529
62767,79.24529
62800,75.39267
62833,75.39267
62867,75.39267
62900,75.39267
62933,75.39267
62967,75.39267
63000,75.39267
63033,75.39267
63067,75.39267
63100,75.39267
63133,75.39267
63167,75.39267
63200,75.39267
63233,75.39267
63267,74.11765
63300,74.11765
63333,74.11765
63367,74.11765
63400,74.11765
63433,74.11765
63467,74.11765
63500,75.39267
63533,75.39267
63567,75.39267
63600,75.39267
63633,75.39267
63667,75.39267
63700,75.39267
63733,75.39267
63767,75.39267
63800,75.39267
63833,75.39267
63867,75.39267
63900,75.39267
63933,75.39267
63967,74.11765
64000,74.11765
64033,74.11765
64067,74.11765
64100,74.11765
64133,74.11765
64167,74.11765
64200,74.11765
64233,75.0
64267,75.0
64300,75.0
64333,75.0
64367,75.0
64400,75.0
64433,75.0
64467,75.0
64500,75.0
64533,75.0
64567,75.0
64600,75.0
64633,75.0
64667,73.68421
64700,73.68421
64733,73.68421
64767,73.68421
64800,73.68421
64833,73.68421
64867,73.68421
64900,73.68421
64933,73.68421
64967,73.68421
65000,74.22681
65033,74.22681
65067,74.22681
65100,74.22681
65133,74.22681
65167,74.22681
65200,74.22681
65233,74.22681
65267,74.22681
65300,74.22681
65333,74.22681
65367,75.90361999999998
65400,75.90361999999998
65433,75.90361999999998
65467,75.90361999999998
65500,75.90361999999998
65533,75.90361999999998
65567,75.90361999999998
65600,75.90361999999998
65633,77.83784
65667,77.83784
65700,77.83784
65733,77.83784
65767,77.83784
65800,77.83784
65833,77.83784
65867,77.83784
65900,77.83784
65933,77.83784
65967,77.83784
66000,77.83784
66033,77.83784
66067,77.83784
66100,77.83784
66133,77.83784
66167,77.83784
66200,77.83784
66233,77.83784
66267,77.83784
66300,78.68852
66333,78.68852
66367,78.68852
66400,78.68852
66433,78.68852
66467,78.68852
66500,78.68852
66533,78.68852
66567,78.68852
66600,78.68852
66633,78.68852
66667,79.12088
66700,79.12088
66733,79.12088
66767,79.12088
66800,79.12088
66833,79.12088
66867,79.12088
66900,79.12088
66933,80.19802
66967,80.19802
67000,79.55801
67033,79.55801
67067,79.55801
67100,79.55801
67133,79.55801
67167,79.55801
67200,80.0
67233,80.0
67267,80.0
67300,80.0
67333,80.0
67367,80.0
67400,80.0
67433,80.0
67467,80.0
67500,80.0
67533,80.0
67567,80.0
67600,81.0
67633,81.0
67667,81.0
67700,81.0
67733,81.0
67767,83.72093000000002
67800,83.72093000000002
67833,83.72093000000002
67867,83.72093000000002
67900,83.72093000000002
67933,83.72093000000002
67967,83.72093000000002
68000,83.72093000000002
68033,83.72093000000002
68067,83.72093000000002
68100,83.72093000000002
68133,83.72093000000002
68167,83.72093000000002
68200,83.72093000000002
68233,83.72093000000002
68267,84.375
68300,84.375
68333,84.375
68367,84.375
68400,84.375
68433,84.375
68467,84.375
68500,84.375
68533,84.375
68567,84.375
68600,84.375
68633,84.375
68667,84.375
68700,87.80488000000004
68733,87.80488000000004
68767,87.80488000000004
68800,87.80488000000004
68833,87.80488000000004
68867,87.80488000000004
68900,88.52459
68933,88.52459
68967,88.52459
69000,88.52459
69033,88.52459
69067,88.52459
69100,88.52459
69133,88.52459
69167,88.52459
69200,88.52459
69233,88.52459
69267,88.52459
69300,88.52459
69333,88.52459
69367,88.52459
69400,88.52459
69433,88.52459
69467,88.52459
69500,88.52459
69533,88.52459
69567,88.66995
69600,88.23529
69633,88.52459
69667,88.52459
69700,88.52459
69733,88.52459
69767,88.52459
69800,88.52459
69833,88.52459
69867,88.52459
69900,88.52459
69933,89.01099
69967,89.01099
70000,89.01099
70033,89.01099
70067,89.01099
70100,89.01099
70133,89.01099
70167,89.01099
70200,89.01099
70233,89.01099
70267,88.66995
70300,88.66995
70333,89.50276
70367,89.50276
70400,89.50276
70433,89.50276
70467,89.50276
70500,89.50276
70533,89.50276
70567,89.50276
70600,89.50276
70633,89.50276
70667,89.50276
70700,89.50276
70733,89.50276
70767,89.50276
70800,89.50276
70833,89.50276
70867,89.50276
70900,90.0
70933,90.0
70967,90.0
71000,90.0
71033,90.0
71067,91.52542
71100,91.52542
71133,91.52542
71167,91.52542
71200,91.52542
71233,91.52542
71267,91.52542
71300,91.52542
71333,91.52542
71367,91.52542
71400,91.52542
71433,91.52542
71467,91.52542
71500,91.52542
71533,91.52542
71567,91.52542
71600,91.52542
71633,90.45226
71667,90.45226
71700,90.45226
71733,90.45226
71767,90.45226
71800,90.45226
71833,89.50276
71867,89.50276
71900,89.50276
71933,89.50276
71967,89.50276
72000,89.50276
72033,89.50276
72067,89.50276
72100,89.50276
72133,89.50276
72167,89.50276
72200,89.50276
72233,89.50276
72267,89.50276
72300,89.50276
72333,89.50276
72367,89.50276
72400,89.50276
72433,89.44099
72467,89.44099
72500,86.63101999999998
72533,86.63101999999998
72567,86.63101999999998
72600,86.63101999999998
72633,86.63101999999998
72667,86.63101999999998
72700,86.63101999999998
72733,86.63101999999998
72767,86.63101999999998
72800,86.63101999999998
72833,86.63101999999998
72867,86.63101999999998
72900,86.63101999999998
72933,86.63101999999998
72967,86.63101999999998
73000,86.63101999999998
73033,86.63101999999998
73067,86.63101999999998
73100,86.22755
73133,86.22755
73167,86.22755
73200,86.22755
73233,86.22755
73267,86.22755
73300,86.22755
73333,84.375
73367,84.375
73400,84.375
73433,84.375
73467,84.375
73500,84.375
73533,84.375
73567,84.375
73600,84.375
73633,84.375
73667,84.375
73700,84.375
73733,84.375
73767,83.72093000000002
73800,83.72093000000002
73833,83.72093000000002
73867,83.72093000000002
73900,83.72093000000002
73933,83.72093000000002
73967,83.72093000000002
74000,83.72093000000002
74033,83.93782
74067,83.93782
74100,83.93782
74133,83.93782
74167,83.93782
74200,83.93782
74233,83.93782
74267,83.93782
74300,83.93782
74333,83.93782
74367,83.93782
74400,83.93782
74433,82.75862
74467,82.75862
74500,82.75862
74533,82.75862
74567,82.75862
74600,82.75862
74633,82.75862
74667,82.75862
74700,82.75862
74733,82.75862
74767,82.75862
74800,82.75862
74833,82.75862
74867,82.75862
74900,82.75862
74933,82.75862
74967,80.59702
75000,80.59702
75033,80.59702
75067,79.55801
75100,79.55801
75133,79.55801
75167,79.55801
75200,79.55801
75233,79.55801
75267,79.55801
75300,79.55801
75333,79.55801
75367,79.55801
75400,79.55801
75433,79.55801
75467,79.55801
75500,79.55801
75533,79.55801
75567,79.55801
75600,79.55801
75633,79.55801
75667,79.55801
75700,79.55801
75733,78.26087
75767,78.26087
75800,78.26087
75833,78.26087
75867,78.26087
75900,78.26087
75933,78.26087
75967,79.12088
76000,79.12088
76033,79.12088
76067,79.12088
76100,79.12088
76133,79.12088
76167,79.12088
76200,79.12088
76233,79.12088
76267,79.12088
76300,79.12088
76333,79.12088
76367,79.12088
76400,78.26087
76433,77.83784
76467,77.83784
76500,77.83784
76533,77.83784
76567,77.83784
76600,77.83784
76633,77.83784
76667,78.26087
76700,78.26087
76733,78.26087
76767,78.26087
76800,78.26087
76833,78.26087
76867,78.26087
76900,78.26087
76933,78.26087
76967,78.26087
77000,78.26087
77033,78.26087
77067,78.26087
77100,76.36364
77133,76.36364
77167,76.36364
77200,76.19048000000002
77233,76.19048000000002
77267,76.19048000000002
77300,76.19048000000002
77333,76.19048000000002
77367,76.19048000000002
77400,76.19048000000002
77433,76.19048000000002
77467,76.19048000000002
77500,76.19048000000002
77533,76.19048000000002
77567,76.19048000000002
77600,76.19048000000002
77633,76.19048000000002
77667,76.19048000000002
77700,76.19048000000002
77733,75.0
77767,75.0
77800,77.41936
77833,77.41936
77867,77.41936
77900,77.41936
77933,77.41936
77967,77.41936
78000,77.41936
78033,77.41936
78067,77.41936
78100,77.41936
78133,77.41936
78167,77.41936
78200,77.41936
78233,77.41936
78267,77.41936
78300,77.41936
78333,77.41936
78367,77.41936
78400,77.41936
78433,79.24529
78467,79.24529
78500,79.24529
78533,79.55801
78567,79.55801
78600,79.55801
78633,79.55801
78667,79.55801
78700,79.55801
78733,79.55801
78767,79.55801
78800,79.55801
78833,79.55801
78867,79.55801
78900,79.55801
78933,79.55801
78967,79.55801
79000,79.55801
79033,79.55801
79067,79.55801
79100,81.81818
79133,81.40704000000002
79167,81.40704000000002
79200,81.40704000000002
79233,81.40704000000002
79267,81.40704000000002
79300,81.40704000000002
79333,82.75862
79367,82.75862
79400,82.75862
79433,82.75862
79467,82.75862
79500,82.75862
79533,82.75862
79567,82.75862
79600,82.75862
79633,82.75862
79667,82.75862
79700,82.75862
79733,82.75862
79767,82.75862
79800,82.75862
79833,82.75862
79867,82.75862
79900,82.75862
79933,82.75862
79967,82.75862
80000,82.75862
80033,82.75862
80067,82.75862
80100,82.75862
80133,79.80296
80167,79.12088
80200,79.12088
80233,79.12088
80267,79.12088
80300,79.12088
80333,79.12088
80367,79.12088
80400,79.12088
80433,79.12088
80467,79.12088
80500,79.12088
80533,79.12088
80567,79.12088
80600,79.12088
80633,79.12088
80667,79.12088
80700,79.12088
80733,79.12088
80767,79.12088
80800,79.12088
80833,79.41176999999998
80867,81.35593
80900,81.35593
80933,81.35593
80967,81.35593
81000,81.35593
81033,81.35593
81067,81.35593
81100,81.35593
81133,81.35593
81167,81.35593
81200,81.35593
81233,81.35593
81267,81.35593
81300,81.35593
81333,81.35593
81367,83.93782
81400,83.93782
81433,84.375
81467,84.375
81500,84.375
81533,84.375
81567,84.375
81600,84.81676
81633,84.81676
81667,84.81676
81700,84.81676
81733,84.81676
81767,86.22755
81800,86.22755
81833,86.22755
81867,86.22755
81900,87.09676999999998
81933,87.09676999999998
81967,87.09676999999998
82000,87.09676999999998
82033,87.09676999999998
82067,87.09676999999998
82100,87.09676999999998
82133,87.09676999999998
82167,87.09676999999998
82200,87.09676999999998
82233,86.63101999999998
82267,86.63101999999998
82300,86.63101999999998
82333,90.0
82367,90.0
82400,90.0
82433,89.55224
82467,90.0
82500,91.52542
82533,91.52542
82567,91.52542
82600,92.04546
82633,92.04546
82667,102.2727
82700,102.2727
82733,105.3191
82767,105.3191
82800,105.3191
82833,105.3191
82867,105.8824
82900,105.8824
82933,105.8824
82967,105.8824
83000,105.8824
83033,105.8824
83067,105.8824
83100,109.0909
83133,109.0909
83167,109.0909
83200,109.0909
83233,109.0909
83267,109.0909
83300,109.0909
83333,110.0
83367,109.3923
83400,109.3923
83433,109.3923
83467,109.3923
83500,109.3923
83533,109.3923
83567,109.3923
83600,110.7692
83633,110.7692
83667,110.7692
83700,110.7692
83733,110.7692
83767,110.2041
83800,110.2041
83833,110.2041
83867,110.2041
83900,110.2041
83933,115.7895
83967,115.7895
84000,115.7895
84033,115.7895
84067,115.7895
84100,115.7895
84133,115.7895
84167,115.7895
84200,114.8936
84233,114.8936
84267,124.4681
84300,124.4681
84333,124.4681
84367,124.4681
84400,124.4681
84433,124.4681
84467,124.4681
84500,124.4681
84533,124.4681
84567,124.4681
84600,114.8936
84633,116.4179
84667,116.4179
84700,116.4179
84733,125.3731
84767,127.1739
84800,127.1739
84833,127.1739
84867,127.1739
84900,127.1739
84933,127.1739
84967,127.1739
85000,127.1739
85033,127.1739
85067,127.1739
85100,127.2727
85133,127.2727
85167,127.2727
85200,127.2727
85233,127.2727
85267,127.2727
85300,127.2727
85333,128.5714
85367,128.5714
85400,128.5714
85433,128.5714
85467,128.5714
85500,118.6813
85533,129.2308
85567,129.2308
85600,129.2308
85633,129.2308
85667,120.0
85700,120.0
85733,120.0
85767,119.3878
85800,119.3878
85833,119.3878
85867,118.0328
85900,118.0328
85933,118.0328
85967,118.0328
86000,127.8689
86033,127.8689
86067,127.2727
86100,127.2727
86133,127.2727
86167,127.2727
86200,127.2727
86233,127.2727
86267,127.2727
86300,125.8064
86333,125.8064
86367,125.8064
86400,125.8064
86433,125.8064
86467,125.8064
86500,125.8064
86533,125.8064
86567,125.8064
86600,124.7525
86633,124.7525
86667,124.7525
86700,123.8095
86733,123.8095
86767,123.8095
86800,123.8095
86833,123.8095
86867,123.8095
86900,123.8095
86933,123.8095
86967,123.8095
87000,123.8095
87033,123.8095
87067,123.8095
87100,123.5294
87133,123.1579
87167,123.1579
87200,123.1579
87233,123.1579
87267,123.1579
87300,123.1579
87333,123.1579
87367,123.1579
87400,123.1579
87433,123.1579
87467,123.1579
87500,123.1579
87533,123.1579
87567,123.5294
87600,122.5131
87633,122.5131
87667,122.5131
87700,122.5131
87733,122.5131
87767,122.5131
87800,122.5131
87833,122.5131
87867,122.5131
87900,122.5131
87933,122.5131
87967,122.5131
88000,122.5131
88033,126.4865
88067,126.4865
88100,126.4865
88133,126.4865
88167,126.4865
88200,126.4865
88233,126.4865
88267,126.4865
88300,126.4865
88333,126.4865
88367,126.4865
88400,126.4865
88433,126.4865
88467,126.4865
88500,126.4865
88533,126.0
88567,126.0
88600,126.0
88633,126.0
88667,126.0
88700,125.1337
88733,125.1337
88767,125.1337
88800,125.1337
88833,125.1337
88867,125.1337
88900,125.1337
88933,125.1337
88967,125.8064
89000,125.8064
89033,124.7525
89067,124.7525
89100,124.7525
89133,124.4681
89167,124.4681
89200,124.4681
89233,124.4681
89267,124.4681
89300,124.4681
89333,124.4681
89367,124.4681
89400,124.4681
89433,124.4681
89467,124.4681
89500,124.7525
89533,124.7525
89567,124.7525
89600,122.5131
89633,122.5131
89667,122.5131
89700,122.5131
89733,122.5131
89767,122.5131
89800,122.5131
89833,122.5131
89867,122.5131
89900,122.5131
89933,122.5131
89967,122.7273
90000,122.5131
90033,122.5131
90067,122.5131
90100,122.5131
90133,122.5131
90167,122.5131
90200,122.5131
90233,122.5131
90267,122.5131
90300,122.5131
90333,122.5131
90367,122.5131
90400,122.5131
90433,122.5131
90467,124.1379
90500,123.8095
90533,123.8095
90567,123.8095
90600,123.8095
90633,123.8095
90667,123.8095
90700,123.8095
90733,123.8095
90767,123.8095
90800,123.8095
90833,123.8095
90867,123.8095
90900,123.8095
90933,123.8095
90967,123.8095
91000,123.8095
91033,121.875
91067,121.875
91100,121.875
91133,121.875
91167,121.875
91200,121.875
91233,121.875
91267,121.875
91300,121.875
91333,121.875
91367,121.875
91400,121.875
91433,121.875
91467,121.3483
91500,121.875
91533,121.875
91567,121.875
91600,121.875
91633,121.875
91667,121.875
91700,121.875
91733,121.875
91767,121.875
91800,121.875
91833,121.875
91867,121.875
91900,121.875
91933,121.3483
91967,121.3483
92000,121.3483
92033,121.3483
92067,121.3483
92100,121.3483
92133,121.3483
92167,121.3483
92200,121.3483
92233,121.3483
92267,121.3483
92300,121.3483
92333,121.3483
92367,116.129
92400,116.129
92433,116.129
92467,116.129
92500,116.129
92533,116.129
92567,116.129
92600,116.129
92633,118.7817
92667,118.7817
92700,118.7817
92733,118.7817
92767,118.7817
92800,118.7817
92833,118.7817
92867,118.7817
92900,119.337
92933,119.337
92967,119.337
93000,119.337
93033,119.337
93067,119.337
93100,120.0
93133,120.0
93167,120.0
93200,120.0
93233,120.0
93267,120.0
93300,120.0
93333,120.0
93367,120.0
93400,120.0
93433,120.0
93467,120.6704
93500,120.6704
93533,120.6704
93567,121.3483
93600,111.236
93633,110.2041
93667,110.2041
93700,110.2041
93733,110.2041
93767,110.2041
93800,110.2041
93833,110.2041
93867,110.2041
93900,110.2041
93933,108.7912
93967,108.7912
94000,108.7912
94033,108.7912
94067,108.7912
94100,108.7912
94133,108.7912
94167,109.0909
94200,109.0909
94233,109.0909
94267,109.0909
94300,109.0909
94333,109.0909
94367,108.0
94400,106.4516
94433,106.4516
94467,106.4516
94500,106.4516
94533,106.4516
94567,106.4516
94600,106.4516
94633,106.4516
94667,106.4516
94700,108.0
94733,108.0
94767,108.0
94800,108.0
94833,108.0
94867,107.027
94900,107.027
94933,107.027
94967,107.027
95000,107.027
95033,107.027
95067,107.027
95100,107.027
95133,107.027
95167,107.027
95200,107.027
95233,107.027
95267,106.9307
95300,106.9307
95333,106.9307
95367,105.8824
95400,105.3191
95433,105.3191
95467,105.3191
95500,105.8824
95533,101.5385
95567,101.5385
95600,105.8824
95633,100.0
95667,105.8824
95700,99.0
95733,99.0
95767,99.0
95800,99.0
95833,99.0
95867,96.77419
95900,96.77419
95933,96.77419
95967,96.77419
96000,96.77419
96033,96.77419
96067,96.77419
96100,96.77419
96133,96.77419
96167,96.77419
96200,96.77419
96233,96.77419
96267,96.77419
96300,96.77419
96333,94.73684
96367,94.73684
96400,94.73684
96433,94.73684
96467,94.73684
96500,94.73684
96533,94.73684
96567,84.21053
96600,84.21053
96633,84.21053
96667,81.0
96700,81.0
96733,81.0
96767,80.59702
96800,80.59702
96833,77.41936
96867,77.41936
96900,77.41936
96933,77.41936
96967,77.41936
97000,77.41936
97033,77.41936
97067,77.41936
97100,77.41936
97133,77.41936
97167,77.41936
97200,77.41936
97233,77.41936
97267,77.41936
97300,77.41936
97333,74.11765
97367,74.11765
97400,74.11765
97433,74.11765
97467,74.11765
97500,63.52941
97533,63.52941
97567,63.52941
97600,63.52941
97633,63.63636
97667,63.63636
97700,63.63636
97733,63.63636
97767,63.63636
97800,63.63636
97833,54.54546
97867,62.5
97900,62.5
97933,62.5
97967,62.5
98000,62.5
98033,62.5
98067,62.5
98100,62.5
98133,62.5
98167,62.5
98200,62.5
98233,62.5
98267,62.5
98300,62.5
98333,62.5
98367,62.5
98400,62.5
98433,62.5
98467,62.5
98500,62.5
98533,62.5
98567,62.7907
98600,62.7907
98633,62.7907
98667,62.7907
98700,62.7907
98733,62.7907
98767,62.7907
98800,62.7907
98833,62.7907
98867,62.7907
98900,62.7907
98933,62.7907
98967,62.7907
99000,62.7907
99033,62.7907
99067,62.7907
99100,62.7907
99133,62.7907
99167,62.7907
99200,62.7907
99233,62.7907
99267,62.7907
99300,62.7907
99333,64.61539
99367,64.61539
99400,64.94846
99433,64.94846
99467,64.94846
99500,64.94846
99533,64.94846
99567,64.94846
99600,64.94846
99633,64.94846
99667,63.905330000000006
99700,63.905330000000006
99733,63.905330000000006
99767,63.905330000000006
99800,63.905330000000006
99833,63.905330000000006
99867,63.905330000000006
99900,63.905330000000006
99933,63.905330000000006
99967,63.905330000000006
100000,63.905330000000006
100033,63.905330000000006
100067,63.905330000000006
100100,63.905330000000006
100133,63.905330000000006
100167,63.905330000000006
100200,63.905330000000006
100233,63.905330000000006
100267,63.63636
100300,63.63636
100333,63.63636
100367,63.63636
100400,63.63636
100433,63.63636
100467,63.63636
100500,63.52941
100533,63.52941
100567,63.52941
100600,63.52941
100633,63.52941
100667,63.52941
100700,63.52941
100733,63.52941
100767,63.52941
100800,63.52941
100833,63.52941
100867,63.52941
100900,63.52941
100933,63.52941
100967,63.52941
101000,63.52941
101033,63.52941
101067,63.52941
101100,63.52941
101133,63.52941
101167,65.28497
101200,65.28497
101233,65.28497
101267,65.28497
101300,65.625
101333,65.625
101367,65.625
101400,65.625
101433,67.92453
101467,67.92453
101500,67.92453
101533,67.92453
101567,67.92453
101600,67.92453
101633,67.92453
101667,67.92453
101700,67.92453
101733,67.92453
101767,67.92453
101800,67.92453
101833,67.92453
101867,68.10811
101900,68.10811
101933,68.10811
101967,68.10811
102000,68.10811
102033,68.10811
102067,68.10811
102100,68.10811
102133,68.10811
102167,68.10811
102200,68.10811
102233,68.10811
102267,68.10811
102300,68.10811
102333,68.10811
102367,68.10811
102400,68.10811
102433,68.10811
102467,68.10811
102500,68.10811
102533,69.67742
102567,69.67742
102600,69.67742
102633,69.67742
102667,69.67742
102700,69.67742
102733,69.61326
102767,69.61326
102800,69.61326
102833,69.61326
102867,69.61326
102900,69.61326
102933,69.61326
102967,69.61326
103000,69.61326
103033,69.61326
103067,69.61326
103100,69.61326
103133,69.61326
103167,69.61326
103200,69.61326
103233,69.61326
103267,69.61326
103300,69.61326
103333,69.61326
103367,69.23076999999999
103400,69.23076999999999
103433,69.23076999999999
103467,69.23076999999999
103500,69.23076999999999
103533,70.12987
103567,70.12987
103600,70.12987
103633,70.12987
103667,70.12987
103700,70.12987
103733,70.12987
103767,70.12987
103800,70.12987
103833,70.12987
103867,70.12987
103900,70.12987
103933,70.12987
103967,70.12987
104000,70.12987
104033,70.12987
104067,70.12987
104100,70.12987
104133,70.12987
104167,64.28571
104200,64.28571
104233,64.28571
104267,64.28571
104300,64.28571
104333,64.28571
104367,64.28571
104400,64.28571
104433,64.28571
104467,64.28571
104500,64.28571
104533,64.28571
104567,64.28571
104600,64.28571
104633,64.28571
104667,64.28571
104700,64.28571
104733,64.28571
104767,64.28571
104800,64.28571
104833,64.28571
104867,64.28571
104900,64.28571
104933,64.28571
104967,64.28571
105000,64.28571
105033,64.28571
105067,64.28571
105100,64.28571
105133,64.28571
105167,64.28571
105200,64.28571
105233,64.28571
105267,64.28571
105300,64.28571
105333,64.28571
105367,64.28571
105400,61.64384
105433,61.64384
105467,61.64384
105500,61.64384
105533,61.64384
105567,61.64384
105600,61.64384
105633,63.52941
105667,63.52941
105700,63.52941
105733,63.52941
105767,63.52941
105800,63.52941
105833,63.52941
105867,63.52941
105900,63.52941
105933,63.52941
105967,63.52941
106000,63.52941
106033,63.52941
106067,63.52941
106100,63.52941
106133,63.82979
106167,61.01695
106200,61.01695
106233,61.01695
106267,61.01695
106300,61.01695
106333,61.01695
106367,61.01695
106400,61.01695
106433,61.01695
106467,60.67416
106500,60.67416
106533,60.67416
106567,60.67416
106600,60.67416
106633,60.67416
106667,60.67416
106700,60.67416
106733,70.78650999999998
106767,70.78650999999998
106800,70.78650999999998
106833,70.78650999999998
106867,70.78650999999998
106900,70.78650999999998
106933,70.78650999999998
106967,70.78650999999998
107000,70.78650999999998
107033,70.78650999999998
107067,70.58823000000002
107100,69.61326
107133,69.61326
107167,69.61326
107200,69.61326
107233,69.61326
107267,69.61326
107300,69.61326
107333,69.61326
107367,69.61326
107400,69.61326
107433,69.61326
107467,69.61326
107500,74.22681
107533,74.22681
107567,74.22681
107600,74.22681
107633,74.22681
107667,74.22681
107700,74.22681
107733,74.22681
107767,74.22681
107800,74.22681
107833,74.22681
107867,74.55621
107900,74.55621
107933,74.55621
107967,74.55621
108000,74.55621
108033,74.55621
108067,74.55621
108100,74.55621
108133,74.55621
108167,74.55621
108200,74.55621
108233,74.55621
108267,74.55621
108300,74.55621
108333,74.55621
108367,74.55621
108400,73.46939
108433,73.46939
108467,73.46939
108500,73.46939
108533,73.46939
108567,73.46939
108600,73.46939
108633,73.46939
108667,73.46939
108700,74.11765
108733,74.11765
108767,74.11765
108800,78.75
108833,78.75
108867,78.75
108900,78.75
108933,78.75
108967,78.75
109000,78.75
109033,78.75
109067,78.75
109100,78.75
109133,78.75
109167,78.75
109200,78.75
109233,78.75
109267,78.75
109300,77.00535
109333,77.00535
109367,77.00535
109400,77.00535
109433,77.00535
109467,77.00535
109500,77.00535
109533,77.00535
109567,77.00535
109600,77.00535
109633,77.00535
109667,77.00535
109700,77.00535
109733,76.59574
109767,76.59574
109800,76.59574
109833,76.59574
109867,76.59574
109900,81.29032
109933,81.29032
109967,81.29032
110000,81.29032
110033,81.29032
110067,81.29032
110100,81.29032
110133,81.29032
110167,81.29032
110200,81.29032
110233,81.29032
110267,80.76923000000002
110300,80.76923000000002
110333,80.76923000000002
110367,80.76923000000002
110400,80.76923000000002
110433,80.76923000000002
110467,80.76923000000002
110500,80.76923000000002
110533,80.76923000000002
110567,80.76923000000002
110600,80.76923000000002
110633,80.76923000000002
110667,80.76923000000002
110700,80.76923000000002
110733,80.76923000000002
110767,80.76923000000002
110800,80.76923000000002
110833,80.76923000000002
110867,80.76923000000002
110900,71.28713
110933,80.76923000000002
110967,70.58823000000002
111000,70.0
111033,70.0
111067,70.0
111100,70.0
111133,70.0
111167,70.0
111200,60.33519
111233,60.33519
111267,60.33519
111300,60.67416
111333,60.67416
111367,60.67416
111400,60.67416
111433,60.67416
111467,60.67416
111500,60.67416
111533,60.67416
111567,60.67416
111600,60.67416
111633,60.67416
111667,60.67416
111700,60.67416
111733,62.06896999999999
111767,62.06896999999999
111800,58.37838000000001
111833,58.37838000000001
111867,58.37838000000001
111900,58.37838000000001
111933,58.37838000000001
111967,58.37838000000001
112000,58.37838000000001
112033,58.37838000000001
112067,58.37838000000001
112100,58.37838000000001
112133,58.37838000000001
112167,58.37838000000001
112200,58.37838000000001
112233,58.37838000000001
112267,58.37838000000001
112300,58.37838000000001
112333,58.06452
112367,54.21686999999999
112400,54.21686999999999
112433,54.21686999999999
112467,54.21686999999999
112500,54.21686999999999
112533,54.21686999999999
112567,54.21686999999999
112600,54.21686999999999
112633,55.95855
112667,55.95855
112700,55.95855
112733,55.95855
112767,55.95855
112800,55.95855
112833,55.95855
112867,55.95855
112900,55.95855
112933,55.95855
112967,55.95855
113000,55.95855
113033,58.06452
113067,58.06452
113100,58.06452
113133,58.06452
113167,58.06452
113200,58.06452
113233,58.06452
113267,58.06452
113300,58.06452
113333,58.06452
113367,58.06452
113400,58.06452
113433,58.06452
113467,60.33519
113500,60.33519
113533,60.33519
113567,60.33519
113600,60.33519
113633,60.33519
113667,60.33519
113700,60.0
113733,60.0
113767,60.0
113800,60.0
113833,60.0
113867,60.0
113900,60.0
113933,60.0
113967,60.0
114000,60.0
114033,60.0
114067,60.0
114100,60.0
114133,60.0
114167,60.0
114200,60.0
114233,60.0
114267,60.0
114300,59.21053000000001
114333,59.21053000000001
114367,59.21053000000001
114400,59.21053000000001
114433,59.21053000000001
114467,59.21053000000001
114500,59.21053000000001
114533,59.21053000000001
114567,59.21053000000001
114600,59.21053000000001
114633,59.21053000000001
114667,59.21053000000001
114700,59.21053000000001
114733,59.21053000000001
114767,59.21053000000001
114800,59.21053000000001
114833,59.21053000000001
114867,59.21053000000001
114900,59.21053000000001
114933,59.21053000000001
114967,59.21053000000001
115000,59.21053000000001
115033,59.21053000000001
115067,59.21053000000001
115100,59.21053000000001
115133,59.21053000000001
115167,59.21053000000001
115200,59.21053000000001
115233,58.53659
115267,58.53659
115300,53.57143000000001
115333,53.57143000000001
115367,53.57143000000001
115400,53.57143000000001
115433,53.57143000000001
115467,53.57143000000001
115500,53.57143000000001
115533,53.57143000000001
115567,53.57143000000001
115600,53.57143000000001
115633,53.57143000000001
115667,53.57143000000001
115700,53.57143000000001
115733,53.57143000000001
115767,53.57143000000001
115800,53.57143000000001
115833,53.57143000000001
115867,53.57143000000001
115900,53.57143000000001
115933,53.57143000000001
115967,53.57143000000001
116000,54.27136
116033,54.27136
116067,54.27136
116100,54.27136
116133,54.27136
116167,54.27136
116200,58.82353000000001
116233,58.82353000000001
116267,58.82353000000001
116300,58.82353000000001
116333,58.82353000000001
116367,58.82353000000001
116400,58.82353000000001
116433,58.82353000000001
116467,58.82353000000001
116500,58.82353000000001
116533,58.82353000000001
116567,58.82353000000001
116600,58.82353000000001
116633,58.82353000000001
116667,58.82353000000001
116700,58.82353000000001
116733,58.82353000000001
116767,58.82353000000001
116800,58.82353000000001
116833,58.82353000000001
116867,58.82353000000001
116900,58.82353000000001
116933,59.66851
116967,59.66851
117000,59.66851
117033,59.66851
117067,59.66851
117100,59.66851
117133,59.66851
117167,59.66851
117200,59.66851
117233,59.66851
117267,59.66851
117300,59.66851
117333,59.66851
117367,59.66851
117400,59.66851
117433,59.66851
117467,59.66851
117500,59.66851
117533,59.66851
117567,59.66851
117600,59.66851
117633,59.66851
117667,59.66851
117700,59.66851
117733,57.69231
117767,57.69231
117800,57.69231
117833,57.69231
117867,57.69231
117900,57.69231
117933,57.69231
117967,57.69231
118000,57.69231
118033,57.69231
118067,57.69231
118100,57.69231
118133,57.69231
118167,57.69231
118200,57.69231
118233,57.69231
118267,57.69231
118300,57.69231
118333,57.69231
118367,57.69231
118400,57.69231
118433,57.69231
118467,57.69231
118500,53.20197
118533,53.20197
118567,51.42857
118600,51.42857
118633,51.42857
118667,51.42857
118700,51.42857
118733,51.42857
118767,51.42857
118800,51.42857
118833,51.42857
118867,51.72414000000001
118900,51.72414000000001
118933,51.72414000000001
118967,51.72414000000001
119000,51.72414000000001
119033,51.72414000000001
119067,51.72414000000001
119100,62.06896999999999
119133,62.06896999999999
119167,62.06896999999999
119200,63.95939
119233,63.63636
119267,63.63636
119300,63.63636
119333,63.63636
119367,63.63636
119400,63.63636
119433,63.63636
119467,62.42775
119500,62.42775
119533,62.42775
119567,62.42775
119600,62.42775
119633,62.42775
119667,62.42775
119700,62.42775
119733,62.42775
119767,62.42775
119800,62.42775
119833,62.42775
119867,62.42775
119900,62.42775
119933,62.06896999999999
119967,64.28571
120000,64.28571
120033,64.28571
120067,64.28571
120100,64.28571
120133,64.28571
120167,64.28571
120200,64.28571
120233,64.28571
120267,66.66666
120300,66.66666
120333,66.66666
120367,66.66666
120400,66.66666
120433,66.66666
120467,66.66666
120500,66.66666
120533,66.66666
120567,66.66666
120600,66.66666
120633,66.66666
120667,66.66666
120700,66.66666
120733,68.10811
120767,68.10811
120800,68.10811
120833,68.10811
120867,77.83784
120900,77.83784
120933,77.83784
120967,77.83784
121000,77.83784
121033,77.83784
121067,77.83784
121100,77.83784
121133,77.83784
121167,77.83784
121200,77.83784
121233,77.83784
121267,77.83784
121300,77.83784
121333,77.83784
121367,77.83784
121400,76.36364
121433,76.36364
121467,76.36364
121500,76.36364
121533,76.19048000000002
121567,76.19048000000002
121600,76.19048000000002
121633,76.19048000000002
121667,76.19048000000002
121700,76.19048000000002
121733,76.19048000000002
121767,76.19048000000002
121800,76.19048000000002
121833,76.19048000000002
121867,76.19048000000002
121900,76.19048000000002
121933,76.19048000000002
121967,76.19048000000002
122000,76.19048000000002
122033,76.19048000000002
122067,75.90361999999998
122100,75.90361999999998
122133,75.90361999999998
122167,75.90361999999998
122200,75.90361999999998
122233,75.90361999999998
122267,75.90361999999998
122300,75.90361999999998
122333,75.90361999999998
122367,75.90361999999998
122400,75.0
122433,75.0
122467,75.0
122500,75.0
122533,75.0
122567,75.0
122600,75.0
122633,75.0
122667,75.0
122700,75.0
122733,75.0
122767,75.0
122800,75.0
122833,76.82927
122867,76.82927
122900,76.82927
122933,76.82927
122967,76.82927
123000,76.82927
123033,76.82927
123067,76.82927
123100,76.82927
123133,76.82927
123167,76.82927
123200,76.82927
123233,76.82927
123267,76.82927
123300,76.82927
123333,76.82927
123367,76.82927
123400,76.82927
123433,76.82927
123467,76.82927
123500,76.82927
123533,76.82927
123567,76.82927
123600,76.82927
123633,71.64179
123667,71.64179
123700,71.64179
123733,71.64179
123767,68.85246
123800,68.85246
123833,68.85246
123867,68.85246
123900,68.85246
123933,68.85246
123967,68.85246
124000,68.85246
124033,68.85246
124067,68.85246
124100,68.85246
124133,68.85246
124167,68.85246
124200,68.85246
124233,68.85246
124267,68.85246
124300,68.85246
124333,68.85246
124367,69.23076999999999
124400,70.39106
124433,70.39106
124467,70.39106
124500,70.39106
124533,70.39106
124567,70.39106
124600,70.39106
124633,70.39106
124667,70.39106
124700,70.39106
124733,70.39106
124767,70.39106
124800,70.39106
124833,70.39106
124867,70.39106
124900,70.39106
124933,70.39106
124967,70.39106
125000,70.39106
125033,70.39106
125067,70.39106
125100,70.39106
125133,70.39106
125167,70.39106
125200,70.39106
125233,70.39106
125267,69.67742
125300,69.67742
125333,69.67742
125367,69.67742
125400,69.67742
125433,69.67742
125467,68.85246
125500,69.23076999999999
125533,69.23076999999999
125567,69.23076999999999
125600,69.23076999999999
125633,69.23076999999999
125667,69.23076999999999
125700,69.23076999999999
125733,69.23076999999999
125767,69.23076999999999
125800,69.23076999999999
125833,69.23076999999999
125867,69.23076999999999
125900,69.23076999999999
125933,69.23076999999999
125967,69.23076999999999
126000,69.23076999999999
126033,69.23076999999999
126067,67.5
126100,67.5
126133,67.5
126167,67.74194
126200,67.74194
126233,67.74194
126267,67.74194
126300,67.74194
126333,67.74194
126367,67.74194
126400,67.74194
126433,67.74194
126467,67.74194
126500,67.74194
126533,67.74194
126567,67.74194
126600,67.74194
126633,67.74194
126667,67.74194
126700,67.74194
126733,67.74194
126767,67.74194
126800,66.25766999999999
126833,66.25766999999999
126867,66.25766999999999
126900,66.25766999999999
126933,66.25766999999999
126967,66.25766999999999
127000,66.25766999999999
127033,66.25766999999999
127067,66.25766999999999
127100,66.25766999999999
127133,66.25766999999999
127167,65.28497
127200,65.28497
127233,65.28497
127267,65.28497
127300,65.28497
127333,65.28497
127367,65.28497
127400,65.28497
127433,65.28497
127467,65.28497
127500,65.28497
127533,65.28497
127567,63.905330000000006
127600,63.905330000000006
127633,63.905330000000006
127667,63.905330000000006
127700,63.905330000000006
127733,63.905330000000006
127767,63.905330000000006
127800,63.905330000000006
127833,63.905330000000006
127867,63.905330000000006
127900,63.905330000000006
127933,63.905330000000006
127967,63.905330000000006
128000,63.905330000000006
128033,63.905330000000006
128067,63.905330000000006
128100,63.905330000000006
128133,63.63636
128167,63.63636
128200,63.63636
128233,63.63636
128267,63.63636
128300,63.63636
128333,63.63636
128367,62.7907
128400,62.7907
128433,62.7907
128467,62.7907
128500,62.7907
128533,62.7907
128567,62.7907
128600,62.7907
128633,62.7907
128667,62.7907
128700,62.7907
128733,62.7907
128767,62.7907
128800,62.7907
128833,62.7907
128867,62.7907
128900,62.7907
128933,62.7907
128967,63.95939
129000,63.95939
129033,63.95939
129067,63.95939
129100,63.95939
129133,63.95939
129167,63.95939
129200,63.95939
129233,67.5
129267,67.5
129300,67.5
129333,67.5
129367,67.5
129400,67.5
129433,67.5
129467,67.5
129500,71.59091
129533,71.59091
129567,71.59091
129600,71.59091
129633,71.59091
129667,71.59091
129700,71.59091
129733,71.59091
129767,71.59091
129800,71.18644
129833,71.18644
129867,71.18644
129900,71.18644
129933,66.66666
129967,66.66666
130000,67.02128
130033,67.02128
130067,70.58823000000002
130100,70.58823000000002
130133,73.25581
130167,73.25581
130200,73.25581
130233,73.25581
130267,73.25581
130300,73.25581
130333,73.25581
130367,73.25581
130400,73.25581
130433,73.25581
130467,73.25581
130500,73.25581
130533,73.25581
130567,77.83784
130600,68.10811
130633,68.10811
130667,68.10811
130700,68.10811
130733,68.10811
130767,68.10811
130800,68.10811
130833,68.10811
130867,68.10811
130900,68.10811
130933,68.10811
130967,68.10811
131000,68.10811
131033,68.10811
131067,68.10811
131100,68.10811
131133,68.10811
131167,68.10811
131200,68.10811
131233,68.35443000000001
131267,68.35443000000001
131300,68.35443000000001
131333,68.35443000000001
131367,68.35443000000001
131400,68.35443000000001
131433,68.35443000000001
131467,68.35443000000001
131500,68.35443000000001
131533,68.35443000000001
131567,68.35443000000001
131600,68.35443000000001
131633,68.35443000000001
131667,68.35443000000001
131700,68.35443000000001
131733,68.35443000000001
131767,68.35443000000001
131800,68.35443000000001
131833,68.35443000000001
131867,68.35443000000001
131900,68.35443000000001
131933,68.35443000000001
131967,68.35443000000001
132000,68.35443000000001
132033,68.35443000000001
132067,68.35443000000001
132100,68.35443000000001
132133,68.18182
132167,68.18182
132200,68.18182
132233,68.18182
132267,59.01639
132300,59.01639
132333,59.01639
132367,59.01639
132400,59.01639
132433,59.01639
132467,59.01639
132500,59.01639
132533,59.01639
132567,59.01639
132600,59.01639
132633,59.01639
132667,59.01639
132700,59.34066
132733,59.34066
132767,59.34066
132800,59.34066
132833,59.66851
132867,64.61539
132900,64.61539
132933,64.94846
132967,64.94846
133000,65.85365999999999
133033,71.59091
133067,71.59091
133100,72.0
133133,72.0
133167,72.0
133200,72.0
133233,82.28571
133267,82.28571
133300,82.28571
133333,82.28571
133367,82.28571
133400,82.28571
133433,82.28571
133467,82.28571
133500,85.71429
133533,95.2381
133567,95.2381
133600,95.2381
133633,95.2381
133667,95.2381
133700,95.2381
133733,95.2381
133767,95.2381
133800,95.2381
133833,95.2381
133867,95.2381
133900,95.2381
133933,95.2381
133967,97.53695
134000,106.4039
134033,114.4509
134067,114.4509
134100,114.4509
134133,114.4509
134167,114.4509
134200,115.1163
134233,115.7895
134267,115.7895
134300,115.7895
134333,115.7895
134367,115.7895
134400,115.7895
134433,115.7895
134467,116.129
134500,116.129
134533,116.129
134567,116.129
134600,116.129
134633,116.129
134667,116.129
134700,116.129
134733,116.129
134767,116.129
134800,116.129
134833,116.129
134867,116.129
134900,116.129
134933,116.129
134967,116.129
135000,116.129
135033,116.129
135067,116.129
135100,116.129
135133,116.129
135167,116.129
135200,116.129
135233,116.129
135267,116.129
135300,116.129
135333,116.129
135367,116.129
135400,116.129
135433,116.129
135467,116.129
135500,116.129
135533,116.129
135567,117.0
135600,117.0
135633,116.4179
135667,116.4179
135700,117.3913
135733,117.3913
135767,117.3913
135800,117.3913
135833,117.3913
135867,117.3913
135900,117.3913
135933,117.3913
135967,117.3913
136000,118.7817
136033,118.7817
136067,118.7817
136100,118.7817
136133,118.7817
136167,118.7817
136200,118.1818
136233,125.5814
136267,125.5814
136300,125.5814
136333,125.5814
136367,125.5814
136400,125.5814
136433,125.5814
136467,125.5814
136500,125.5814
136533,125.5814
136567,125.5814
136600,125.5814
136633,125.5814
136667,125.5814
136700,125.5814
136733,125.5814
136767,125.5814
136800,125.5814
136833,125.5814
136867,125.5814
136900,125.5814
136933,125.5814
136967,125.5814
137000,125.5814
137033,115.2709
137067,115.2709
137100,114.8936
137133,114.8936
137167,114.8936
137200,114.8936
137233,114.8936
137267,114.8936
137300,114.8936
137333,114.8936
137367,114.8936
137400,114.8936
137433,114.8936
137467,114.8936
137500,114.8936
137533,115.2709
137567,115.2709
137600,114.8936
137633,114.8936
137667,114.8936
137700,114.8936
137733,114.8936
137767,114.8936
137800,114.8936
137833,114.8936
137867,114.8936
137900,114.8936
137933,114.8936
137967,114.8936
138000,114.8936
138033,115.2709
138067,115.2709
138100,114.8936
138133,114.8936
138167,114.8936
138200,114.8936
138233,114.8936
138267,114.8936
138300,114.8936
138333,114.8936
138367,114.8936
138400,114.8936
138433,114.8936
138467,114.8936
138500,114.8936
138533,115.2709
138567,115.2709
138600,113.6842
138633,113.6842
138667,113.6842
138700,113.6842
138733,113.6842
138767,113.6842
138800,113.6842
138833,113.6842
138867,113.6842
138900,113.6842
138933,113.6842
138967,115.2709
139000,115.2709
139033,113.6842
139067,113.6842
139100,113.6842
139133,113.6842
139167,113.6842
139200,113.6842
139233,113.6842
139267,114.2857
139300,114.2857
139333,114.2857
139367,114.2857
139400,114.2857
139433,114.2857
139467,111.9171
139500,111.9171
139533,111.9171
139567,111.9171
139600,111.9171
139633,111.9171
139667,111.9171
139700,111.9171
139733,111.9171
139767,102.5907
139800,102.5907
139833,102.5907
139867,100.5587
139900,100.5587
139933,100.5587
139967,100.5587
140000,102.5907
140033,102.5907
140067,93.26425
140100,93.26425
140133,93.26425
140167,93.26425
140200,102.5907
140233,102.5907
140267,102.5907
140300,97.53695
140333,95.2381
140367,95.2381
140400,95.2381
140433,95.2381
140467,95.2381
140500,95.2381
140533,95.2381
140567,95.2381
140600,95.2381
140633,95.2381
140667,95.2381
140700,95.2381
140733,95.2381
140767,95.2381
140800,93.64162
140833,93.64162
140867,93.64162
140900,93.64162
140933,93.64162
140967,93.64162
141000,83.23699
141033,83.23699
141067,83.23699
141100,83.23699
141133,81.40704000000002
141167,81.40704000000002
141200,81.40704000000002
141233,81.40704000000002
141267,81.40704000000002
141300,81.40704000000002
141333,79.55801
141367,79.55801
141400,80.0
141433,80.0
141467,80.0
141500,80.0
141533,80.0
141567,80.0
141600,80.0
141633,80.0
141667,80.0
141700,80.0
141733,80.0
141767,81.0
141800,81.0
141833,81.0
141867,81.0
141900,81.0
141933,77.83784
141967,77.83784
142000,77.83784
142033,77.83784
142067,77.83784
142100,77.83784
142133,77.83784
142167,77.83784
142200,77.83784
142233,77.83784
142267,77.83784
142300,77.83784
142333,77.83784
142367,77.83784
142400,77.83784
142433,88.73239000000002
142467,88.73239000000002
142500,76.05634
142533,76.05634
142567,76.05634
142600,76.05634
142633,75.4491
142667,75.4491
142700,75.4491
142733,75.4491
142767,75.4491
142800,75.4491
142833,75.4491
142867,75.4491
142900,64.67066
142933,64.67066
142967,64.67066
143000,65.06024000000001
143033,65.06024000000001
143067,65.06024000000001
143100,65.06024000000001
143133,65.06024000000001
143167,65.06024000000001
143200,65.06024000000001
143233,65.06024000000001
143267,65.06024000000001
143300,65.06024000000001
143333,65.06024000000001
143367,65.06024000000001
143400,65.06024000000001
143433,65.06024000000001
143467,65.06024000000001
143500,65.06024000000001
143533,64.94846
143567,65.28497
143600,65.28497
143633,65.28497
143667,65.28497
143700,65.28497
143733,65.28497
143767,65.28497
143800,65.28497
143833,74.6114
143867,74.6114
143900,77.30060999999998
143933,77.30060999999998
143967,77.30060999999998
144000,77.30060999999998
144033,77.30060999999998
144067,77.30060999999998
144100,77.30060999999998
144133,77.30060999999998
144167,78.68852
144200,78.68852
144233,78.68852
144267,78.68852
144300,78.68852
144333,78.68852
144367,78.68852
144400,78.68852
144433,78.68852
144467,78.68852
144500,78.68852
144533,78.68852
144567,78.68852
144600,78.68852
144633,78.68852
144667,78.68852
144700,78.68852
144733,78.68852
144767,78.68852
144800,78.68852
144833,78.68852
144867,78.68852
144900,79.74683
144933,79.74683
144967,79.74683
145000,79.74683
145033,79.74683
145067,79.74683
145100,79.74683
145133,79.74683
145167,79.74683
145200,79.74683
145233,79.74683
145267,79.74683
145300,79.74683
145333,79.74683
145367,79.74683
145400,79.74683
145433,79.74683
145467,79.24529
145500,79.24529
145533,79.24529
145567,79.24529
145600,78.75
145633,78.75
145667,76.59574
145700,76.59574
145733,76.59574
145767,76.59574
145800,80.0
145833,90.50279
145867,90.50279
145900,90.50279
145933,90.50279
145967,90.50279
146000,90.50279
146033,80.44693000000002
146067,80.44693000000002
146100,80.44693000000002
146133,80.44693000000002
146167,80.44693000000002
146200,80.44693000000002
146233,80.44693000000002
146267,80.44693000000002
146300,80.44693000000002
146333,79.74683
146367,79.74683
146400,79.74683
146433,77.00535
146467,79.74683
146500,79.74683
146533,79.74683
146567,75.39267
146600,75.39267
146633,75.39267
146667,75.39267
146700,75.39267
146733,75.39267
146767,75.39267
146800,75.39267
146833,75.39267
146867,75.39267
146900,75.39267
146933,75.39267
146967,75.39267
147000,75.39267
147033,77.30060999999998
147067,77.30060999999998
147100,77.30060999999998
147133,77.30060999999998
147167,77.30060999999998
147200,77.30060999999998
147233,77.30060999999998
147267,77.30060999999998
147300,77.30060999999998
147333,77.30060999999998
147367,77.00535
147400,77.00535
147433,77.00535
147467,77.00535
147500,77.00535
147533,77.00535
147567,77.00535
147600,77.00535
147633,77.00535
147667,77.00535
147700,77.00535
147733,77.00535
147767,77.00535
147800,77.00535
147833,77.00535
147867,77.00535
147900,77.00535
147933,77.00535
147967,77.77778
148000,77.77778
148033,77.77778
148067,66.66666
148100,66.66666
148133,66.66666
148167,67.74194
148200,67.74194
148233,67.74194
148267,67.74194
148300,67.74194
148333,67.74194
148367,67.74194
148400,67.74194
148433,67.74194
148467,67.74194
148500,67.74194
148533,67.74194
148567,67.74194
148600,67.74194
148633,67.74194
148667,67.74194
148700,67.74194
148733,67.74194
148767,67.74194
148800,65.06024000000001
148833,65.06024000000001
148867,65.06024000000001
148900,67.02128
148933,67.02128
148967,67.02128
149000,67.02128
149033,67.02128
149067,67.02128
149100,67.02128
149133,67.02128
149167,67.02128
149200,67.02128
149233,67.02128
149267,67.02128
149300,67.02128
149333,67.02128
149367,67.02128
149400,67.02128
149433,67.02128
149467,66.25766999999999
149500,66.25766999999999
149533,66.25766999999999
149567,66.25766999999999
149600,66.25766999999999
149633,66.25766999999999
149667,66.25766999999999
149700,66.25766999999999
149733,66.25766999999999
149767,66.25766999999999
149800,66.25766999999999
149833,66.25766999999999
149867,65.625
149900,65.625
149933,65.625
149967,65.625
150000,65.625
150033,65.625
150067,66.25766999999999
150100,66.25766999999999
150133,63.0
150167,63.0
150200,63.0
150233,63.0
150267,63.0
150300,60.33519
150333,60.33519
150367,60.33519
150400,60.33519
150433,60.33519
150467,60.33519
150500,60.33519
150533,60.33519
150567,59.66851
150600,59.66851
150633,59.66851
150667,59.66851
150700,59.66851
150733,59.66851
150767,59.66851
150800,59.66851
150833,63.0
150867,63.0
150900,59.66851
150933,62.06896999999999
150967,62.06896999999999
151000,65.85365999999999
151033,65.85365999999999
151067,65.85365999999999
151100,65.85365999999999
151133,65.85365999999999
151167,65.85365999999999
151200,65.85365999999999
151233,65.85365999999999
151267,65.85365999999999
151300,65.85365999999999
151333,65.85365999999999
151367,65.85365999999999
151400,65.85365999999999
151433,65.85365999999999
151467,65.85365999999999
151500,65.85365999999999
151533,65.85365999999999
151567,65.85365999999999
151600,65.85365999999999
151633,65.85365999999999
151667,65.85365999999999
151700,65.85365999999999
151733,65.85365999999999
151767,65.85365999999999
151800,67.37968000000001
151833,67.37968000000001
151867,67.37968000000001
151900,67.37968000000001
151933,67.37968000000001
151967,67.37968000000001
152000,67.37968000000001
152033,67.37968000000001
152067,67.37968000000001
152100,67.37968000000001
152133,67.37968000000001
152167,67.37968000000001
152200,67.37968000000001
152233,67.37968000000001
152267,67.37968000000001
152300,75.0
152333,75.0
152367,75.0
152400,75.0
152433,75.0
152467,75.0
152500,75.0
152533,75.0
152567,75.0
152600,75.0
152633,75.0
152667,75.0
152700,78.26087
152733,75.0
152767,77.41936
152800,77.41936
152833,77.41936
152867,77.41936
152900,77.41936
152933,77.41936
152967,77.41936
153000,77.41936
153033,77.41936
153067,77.41936
153100,77.41936
153133,77.41936
153167,77.41936
153200,77.41936
153233,77.41936
153267,77.41936
153300,77.41936
153333,77.41936
153367,77.41936
153400,77.77778
153433,77.77778
153467,77.77778
153500,77.77778
153533,77.77778
153567,77.77778
153600,77.77778
153633,77.77778
153667,77.77778
153700,75.78947
153733,75.78947
153767,75.78947
153800,75.78947
153833,75.78947
153867,75.78947
153900,75.78947
153933,75.78947
153967,75.78947
154000,75.78947
154033,75.78947
154067,75.78947
154100,75.78947
154133,75.78947
154167,75.78947
154200,75.90361999999998
154233,75.90361999999998
154267,75.90361999999998
154300,75.90361999999998
154333,75.90361999999998
154367,75.90361999999998
154400,77.00535
154433,77.00535
154467,67.37968000000001
154500,67.37968000000001
154533,67.74194
154567,67.74194
154600,67.74194
154633,67.74194
154667,67.74194
154700,67.74194
154733,67.74194
154767,67.74194
154800,72.36180999999998
154833,72.36180999999998
154867,72.36180999999998
154900,72.36180999999998
154933,72.36180999999998
154967,72.36180999999998
155000,81.35593
155033,81.35593
155067,91.52542
155100,91.52542
155133,92.04546
155167,92.04546
155200,92.04546
155233,92.04546
155267,92.04546
155300,92.04546
155333,93.75
155367,93.75
155400,93.75
155433,93.75
155467,93.75
155500,93.75
155533,93.75
155567,93.75
155600,93.75
155633,93.75
155667,93.75
155700,93.75
155733,93.75
155767,103.8462
155800,103.8462
155833,115.3846
155867,115.3846
155900,115.3846
155933,115.3846
155967,114.6497
156000,113.7931
156033,113.7931
156067,113.7931
156100,113.7931
156133,113.7931
156167,108.5427
156200,108.5427
156233,108.5427
156267,108.5427
156300,108.5427
156333,108.5427
156367,108.7912
156400,108.7912
156433,108.7912
156467,108.7912
156500,108.7912
156533,108.7912
156567,108.7912
156600,108.7912
156633,110.2041
156667,110.2041
156700,110.2041
156733,110.2041
156767,110.2041
156800,110.2041
156833,110.2041
156867,110.2041
156900,110.2041
156933,116.4706
156967,116.4706
157000,116.4706
157033,116.4706
157067,116.4706
157100,117.3913
157133,117.3913
157167,117.3913
157200,117.3913
157233,117.3913
157267,117.3913
157300,117.3913
157333,117.3913
157367,117.3913
157400,117.3913
157433,117.3913
157467,117.3913
157500,117.3913
157533,117.3913
157567,117.3913
157600,117.5879
157633,117.5879
157667,117.5879
157700,117.5879
157733,117.5879
157767,117.5879
157800,116.7568
157833,116.7568
157867,116.7568
157900,116.7568
157933,116.7568
157967,116.7568
158000,116.7568
158033,116.7568
158067,117.5879
158100,117.5879
158133,117.5879
158167,117.5879
158200,117.5879
158233,117.5879
158267,116.129
158300,116.129
158333,116.129
158367,116.129
158400,116.129
158433,116.129
158467,116.129
158500,116.129
158533,116.129
158567,116.4179
158600,116.4179
158633,116.4179
158667,116.4179
158700,115.508
158733,115.508
158767,115.508
158800,115.508
158833,115.508
158867,115.508
158900,115.508
158933,115.508
158967,115.508
159000,115.508
159033,116.4179
159067,116.4179
159100,116.4179
159133,116.4179
159167,115.508
159200,115.508
159233,115.508
159267,115.508
159300,115.508
159333,115.508
159367,115.508
159400,115.508
159433,115.508
159467,115.508
159500,116.4179
159533,116.4179
159567,116.4179
159600,116.4179
159633,118.6813
159667,118.6813
159700,118.6813
159733,118.6813
159767,118.6813
159800,118.6813
159833,118.6813
159867,118.6813
159900,118.6813
159933,118.6813
159967,118.6813
160000,119.3878
160033,119.3878
160067,119.3878
160100,119.3878
160133,119.3878
160167,119.3878
160200,119.3878
160233,119.3878
160267,118.6813
160300,118.6813
160333,118.6813
160367,118.6813
160400,118.6813
160433,118.6813
160467,118.6813
160500,118.6813
160533,118.6813
160567,118.6813
160600,118.6813
160633,118.6813
160667,118.6813
160700,118.6813
160733,117.1598
160767,117.1598
160800,117.1598
160833,117.1598
160867,117.1598
160900,117.1598
160933,117.1598
160967,117.1598
161000,117.1598
161033,117.1598
161067,117.1598
161100,117.1598
161133,111.3402
161167,110.0
161200,110.0
161233,110.0
161267,110.0
161300,110.0
161333,110.0
161367,110.0
161400,120.0
161433,110.0
161467,110.0
161500,108.0
161533,108.0
161567,108.0
161600,108.0
161633,107.6087
161667,107.6087
161700,107.6087
161733,103.6649
161767,103.6649
161800,103.6649
161833,110.4295
161867,110.4295
161900,110.4295
161933,110.4295
161967,110.4295
162000,110.4295
162033,110.4295
162067,110.4295
162100,97.53695
162133,106.4039
162167,103.125
162200,103.125
162233,103.125
162267,103.125
162300,103.125
162333,103.125
162367,103.125
162400,103.125
162433,103.125
162467,103.125
162500,103.125
162533,101.1236
162567,101.1236
162600,101.1236
162633,91.01124
162667,91.01124
162700,91.01124
162733,91.01124
162767,91.01124
162800,91.01124
162833,91.01124
162867,91.01124
162900,91.01124
162933,91.01124
162967,91.01124
163000,87.80488000000004
163033,87.80488000000004
163067,87.80488000000004
163100,87.80488000000004
163133,87.80488000000004
163167,87.80488000000004
163200,82.23351
163233,82.23351
163267,82.23351
163300,82.23351
163333,82.23351
163367,82.23351
163400,82.23351
163433,82.23351
163467,79.12088
163500,79.12088
163533,79.12088
163567,79.12088
163600,79.12088
163633,79.12088
163667,79.12088
163700,79.12088
163733,79.12088
163767,79.12088
163800,79.12088
163833,79.12088
163867,79.12088
163900,79.12088
163933,79.12088
163967,74.11765
164000,74.11765
164033,74.11765
164067,74.11765
164100,74.11765
164133,74.11765
164167,74.11765
164200,72.0
164233,72.0
164267,72.0
164300,72.0
164333,72.0
164367,68.85246
164400,68.85246
164433,69.23076999999999
164467,69.23076999999999
164500,59.34066
164533,59.34066
164567,59.34066
164600,59.34066
164633,59.34066
164667,59.34066
164700,59.34066
164733,59.34066
164767,59.34066
164800,59.34066
164833,59.34066
164867,59.34066
164900,59.34066
164933,59.34066
164967,52.94118
165000,52.94118
165033,52.94118
165067,52.94118
165100,52.94118
165133,52.94118
165167,52.94118
165200,52.94118
165233,52.94118
165267,52.94118
165300,52.94118
165333,52.94118
165367,51.42857
165400,51.42857
165433,51.42857
165467,51.42857
165500,51.42857
165533,51.42857
165567,51.42857
165600,51.42857
165633,51.42857
165667,51.42857
165700,51.42857
165733,51.42857
165767,51.42857
165800,51.42857
165833,51.42857
165867,51.42857
165900,51.42857
165933,51.42857
165967,51.42857
166000,51.42857
166033,51.42857
166067,51.42857
166100,51.42857
166133,51.42857
166167,51.42857
166200,45.0
166233,45.0
166267,45.0
166300,45.0
166333,45.0
166367,43.37349
166400,43.11377
166433,43.11377
166467,43.11377
166500,43.11377
166533,43.11377
166567,43.11377
166600,43.11377
166633,43.11377
166667,43.11377
166700,43.11377
166733,43.11377
166767,43.11377
166800,43.11377
166833,43.11377
166867,43.11377
166900,43.11377
166933,43.11377
166967,43.11377
167000,43.11377
167033,43.11377
167067,46.63213
167100,46.63213
167133,46.63213
167167,46.63213
167200,46.63213
167233,46.63213
167267,46.63213
167300,46.63213
167333,46.63213
167367,46.63213
167400,46.63213
167433,46.63213
167467,48.32215
167500,48.32215
167533,48.32215
167567,48.32215
167600,48.32215
167633,48.32215
167667,48.32215
167700,48.32215
167733,48.32215
167767,48.32215
167800,48.32215
167833,48.32215
167867,48.32215
167900,51.72414000000001
167933,51.72414000000001
167967,51.72414000000001
168000,51.72414000000001
168033,51.72414000000001
168067,51.72414000000001
168100,51.72414000000001
168133,51.72414000000001
168167,51.72414000000001
168200,51.72414000000001
168233,51.42857
168267,51.42857
168300,51.42857
168333,51.42857
168367,51.42857
168400,51.42857
168433,51.42857
168467,51.42857
168500,51.42857
168533,51.42857
168567,51.42857
168600,51.42857
168633,51.42857
168667,51.42857
168700,51.42857
168733,51.42857
168767,51.42857
168800,51.42857
168833,51.13636
168867,51.13636
168900,51.13636
168933,50.34965
168967,50.34965
169000,50.34965
169033,50.34965
169067,50.34965
169100,50.70422
169133,50.70422
169167,50.27933
169200,50.27933
169233,50.27933
169267,50.27933
169300,50.27933
169333,50.27933
169367,50.5618
169400,50.5618
169433,50.5618
169467,50.5618
169500,50.5618
169533,50.5618
169567,50.5618
169600,50.5618
169633,50.5618
169667,50.5618
169700,50.5618
169733,50.5618
169767,50.5618
169800,54.54546
169833,54.54546
169867,54.82233000000001
169900,55.10204
169933,55.10204
169967,55.10204
170000,55.38462
170033,54.87805
170067,54.87805
170100,61.01695
170133,61.01695
170167,60.67416
170200,60.67416
170233,60.67416
170267,60.67416
170300,60.67416
170333,60.67416
170367,60.67416
170400,60.67416
170433,60.67416
170467,60.67416
170500,60.67416
170533,60.67416
170567,60.67416
170600,60.67416
170633,64.94846
170667,64.94846
170700,64.94846
170733,64.94846
170767,64.94846
170800,64.94846
170833,64.94846
170867,64.94846
170900,64.94846
170933,64.94846
170967,83.50516
171000,109.0909
171033,95.45454
171067,95.45454
171100,98.63013
171133,110.9589
171167,110.9589
171200,110.9589
171233,110.9589
171267,110.9589
171300,110.9589
171333,110.9589
171367,110.9589
171400,110.9589
171433,110.9589
171467,110.9589
171500,110.9589
171533,110.9589
171567,112.5
171600,112.5
171633,112.5
171667,112.5
171700,112.5
171733,112.5
171767,112.5
171800,112.5
171833,112.5
171867,112.5
171900,112.5
171933,112.5
171967,113.2076
172000,115.1163
172033,115.1163
172067,115.1163
172100,115.1163
172133,115.1163
172167,115.1163
172200,115.1163
172233,115.1163
172267,115.1163
172300,115.1163
172333,115.1163
172367,115.1163
172400,115.1163
172433,115.1163
172467,115.1163
172500,115.1163
172533,115.1163
172567,115.1163
172600,115.1163
172633,115.1163
172667,115.1163
172700,115.1163
172733,115.1163
172767,115.1163
172800,115.1163
172833,115.1163
172867,115.1163
172900,115.1163
172933,115.1163
172967,115.1163
173000,115.1163
173033,115.1163
173067,115.1163
173100,126.7606
173133,126.7606
173167,126.7606
173200,126.7606
173233,126.7606
173267,126.7606
173300,126.7606
173333,126.7606
173367,126.7606
173400,126.7606
173433,126.7606
173467,126.7606
173500,126.7606
173533,126.7606
173567,126.7606
173600,126.7606
173633,127.7419
173667,126.7606
173700,126.7606
173733,126.7606
173767,104.2105
173800,104.2105
173833,104.2105
173867,104.2105
173900,104.2105
173933,104.2105
173967,104.2105
174000,104.2105
174033,104.2105
174067,105.8824
174100,105.3191
174133,105.3191
174167,105.3191
174200,105.3191
174233,105.3191
174267,105.3191
174300,105.3191
174333,105.3191
174367,105.3191
174400,105.3191
174433,105.3191
174467,105.3191
174500,105.3191
174534,105.3191
174567,105.3191
174600,105.3191
174634,105.3191
174667,105.3191
174700,105.3191
174734,105.3191
174767,105.3191
174800,105.3191
174834,105.3191
174867,105.3191
174900,105.3191
174934,105.3191
174967,105.3191
175000,105.3191
175034,105.3191
175067,105.3191
175100,105.3191
175134,105.3191
175167,105.3191
175200,105.3191
175234,105.3191
175267,105.3191
175300,105.3191
175334,105.3191
175367,105.3191
175400,105.3191
175434,105.3191
175467,105.3191
175500,105.3191
175534,105.3191
175567,105.3191
175600,105.3191
175634,105.3191
175667,105.3191
175700,105.3191
175734,105.3191
175767,105.3191
175800,105.3191
175834,105.3191
175867,105.3191
175900,105.3191
175934,105.3191
175967,105.3191
176000,105.3191
176034,105.3191
176067,105.3191
176100,105.3191
176134,105.3191
176167,105.3191
176200,105.3191
176234,105.3191
176267,105.3191
176300,105.3191
176334,105.3191
176367,105.3191
176400,105.3191
176434,105.3191
176467,105.3191
176500,105.3191
176534,105.3191
176567,105.3191
176600,105.3191
176634,105.3191
176667,105.3191
176700,105.3191
176734,105.3191
176767,105.3191
176800,105.3191
176834,105.3191
176867,105.3191
176900,105.3191
176934,105.3191
176967,105.3191
177000,105.3191
177034,105.3191
177067,105.3191
177100,105.3191
177134,105.3191
177167,105.3191
177200,105.3191
177234,105.3191
177267,105.3191
177300,105.3191
177334,105.3191
177367,105.3191
177400,105.3191
177434,105.3191
177467,105.3191
177500,105.3191
177534,105.3191
177567,105.3191
177600,105.3191
177634,105.3191
177667,105.3191
177700,105.3191
177734,105.3191
177767,105.3191
177800,105.3191
177834,105.3191
177867,105.3191
177900,105.3191
177934,105.3191
177967,105.3191
178000,105.3191
178034,105.3191
178067,105.3191
178100,105.3191
178134,105.3191
178167,105.3191
178200,105.3191
178234,105.3191
178267,105.3191
178300,105.3191
178334,105.3191
178367,105.3191
178400,105.3191
178434,105.3191
178467,105.3191
178500,105.3191
178534,105.3191
178567,105.3191
178600,105.3191
178634,105.3191
178667,105.3191
178700,105.3191
178734,105.3191
178767,105.3191
178800,105.3191
178834,105.3191
178867,105.3191
178900,105.3191
178934,105.3191
178967,105.3191
179000,105.3191
179034,105.3191
179067,105.3191
179100,105.3191
179134,105.3191
179167,105.3191
179200,105.3191
179234,105.3191
179267,105.3191
179300,105.3191
179334,105.3191
179367,105.3191
179400,105.3191
179434,105.3191
179467,105.3191
179500,105.3191
179534,105.3191
179567,105.3191
179600,105.3191
179634,105.3191
179667,105.3191
179700,105.3191
179734,105.3191
179767,105.3191
179800,105.3191
179834,105.3191
179867,105.3191
179900,105.3191
179934,105.3191
179967,105.3191
180000,105.3191
180034,105.3191
180067,105.3191
180100,105.3191
180134,105.3191
180167,105.3191
180200,105.3191
180234,105.3191
180267,105.3191
180300,105.3191
180334,105.3191
180367,105.3191
180400,105.3191
180434,105.3191
180467,105.3191
180500,105.3191
180534,105.3191
180567,105.3191
180600,105.3191
180634,105.3191
180667,105.3191
180700,105.3191
180734,105.3191
180767,105.3191
180800,105.3191
180834,105.3191
180867,105.3191
180900,105.3191
180934,105.3191
180967,105.3191
181000,105.3191
181034,105.3191
181067,105.3191
181100,105.3191
181134,105.3191
181167,105.3191
181200,105.3191
181234,105.3191
181267,105.3191
181300,105.3191
